650.26837	66.077354
649.78607	66.822029
649.30573	67.224983
648.82336	66.869987
648.34302	66.525383
647.86261	66.140709
647.38013	65.75808
646.89966	65.395279
646.41718	65.041962
645.93665	64.691559
645.4541	64.353294
644.97357	64.036057
644.49097	63.746651
644.01038	63.530735
643.52771	63.369324
643.04706	63.158573
642.56433	63.109039
642.08362	63.135361
641.60089	63.261543
641.12012	63.397274
640.63733	63.552643
640.15649	63.745415
639.67365	63.941265
639.19275	64.168007
638.70984	64.390274
638.22693	64.630028
637.74597	64.864792
637.263	65.092163
636.78204	65.328629
636.29901	65.617622
635.81793	65.839073
635.33484	65.965378
634.85175	65.972923
634.37061	65.961624
633.88745	65.92691
633.40631	65.872284
632.9231	65.796242
632.43982	65.700836
631.95856	65.608582
631.47528	65.509796
630.992	65.406067
630.51062	65.290901
630.02728	65.184319
629.54388	65.052315
629.0625	64.811981
628.57904	64.750229
628.09558	64.797874
627.61407	64.807457
627.13055	64.85672
626.64703	64.895187
626.16345	64.974945
625.68188	65.036774
625.19824	65.134415
624.7146	65.208267
624.23291	65.306152
623.74921	65.383408
623.2655	65.473801
622.78174	65.556389
622.29999	65.628448
621.81616	65.694107
621.33234	65.753922
620.84851	65.811714
620.36664	65.857124
619.88275	65.906342
619.3988	65.937996
618.91486	65.977135
618.43085	65.991554
617.94885	66.019066
617.46484	66.016472
616.98077	66.031906
616.4967	66.010773
616.01257	66.013695
615.52844	65.922699
615.04626	65.876526
614.56207	65.75235
614.07788	65.698685
613.59363	65.622597
613.10938	65.562958
612.62506	65.475853
612.14075	65.412567
611.65637	65.321434
611.17407	65.255287
610.68964	65.164757
610.20526	65.091537
609.72076	65.005142
609.23633	64.915428
608.75183	64.837639
608.26727	64.726204
607.78271	64.630119
607.29816	64.484688
606.81354	64.350822
606.32892	64.160797
605.84424	63.96637
605.35956	63.73027
604.87488	63.482693
604.39014	63.210545
603.9054	62.923607
603.42059	62.634598
602.93579	62.341759
602.45099	62.002354
601.96613	61.899872
601.4812	64.208191
600.99628	65.498238
600.51135	66.118629
600.02637	66.188843
599.54138	65.628792
599.0564	65.140335
598.57135	64.845032
598.0863	64.619469
597.6012	64.441269
597.11609	64.357315
596.63092	64.371346
596.14575	65.101402
595.66052	65.042023
595.17535	64.912804
594.69006	64.882736
594.20477	64.846397
593.71747	64.754387
593.23218	64.541595
592.74683	63.712734
592.26141	63.391121
591.776	63.391945
591.29059	63.461792
590.80511	63.543324
590.31964	63.65258
589.83209	63.853672
589.34656	64.045143
588.86102	64.1474
588.37543	64.220978
587.88983	63.813362
587.40417	63.400928
586.9165	62.99752
586.43079	62.599556
585.94507	62.214756
585.45935	61.982944
584.97357	61.919666
584.48578	61.76643
583.99994	61.782513
583.5141	62.026138
583.0282	62.293594
582.54028	62.589596
582.05438	62.902363
581.56842	63.203411
581.08246	63.498539
580.59442	63.761597
580.1084	63.985477
579.62238	64.159218
579.13629	64.145798
578.64813	64.114174
578.16199	64.077957
577.67584	63.962776
577.18762	63.784512
576.70142	63.580845
576.21521	63.337669
575.72693	62.896408
575.2406	62.422829
574.75433	61.950768
574.26593	61.483959
573.7796	61.054882
573.29321	60.659313
572.80475	60.360924
572.3183	60.094894
571.83185	60.596371
571.34332	60.809242
570.85681	61.377193
570.36823	62.015125
569.88165	62.704899
569.39502	63.391991
568.90637	64.024498
568.41974	64.546165
567.93103	64.29158
567.44434	64.078194
566.95758	63.812843
566.46881	63.524624
565.98206	63.331192
565.49323	63.097351
565.00635	62.704018
564.51746	62.469677
564.03058	62.421032
563.54169	62.750729
563.05475	63.256458
562.56775	64.143227
562.07874	64.975151
561.59174	65.624359
561.10266	66.092873
560.6156	66.334862
560.12646	66.356796
559.63934	66.192322
559.15015	65.842285
558.66095	65.333542
558.17377	64.690125
557.68451	63.969887
557.19727	63.143078
556.70795	62.23645
556.22064	61.406296
555.73126	60.743481
555.24396	60.442375
554.75452	60.371834
554.26508	60.866314
553.77765	61.512093
553.28815	62.347706
552.80066	63.371017
552.31116	64.549408
551.82159	66.040871
551.33398	67.39489
550.84436	68.041153
550.35675	68.44381
549.86707	68.499657
549.37738	68.161652
548.88971	67.024094
548.39996	65.827927
547.91016	64.826317
547.42236	64.962738
546.93256	66.204094
546.44269	66.461075
545.95483	66.769943
545.46497	67.324516
544.97498	68.016869
544.48706	68.97628
543.99707	69.951515
543.50708	70.84111
543.01904	71.572182
542.52899	72.145081
542.03888	72.615166
541.54877	72.976402
541.06067	73.163162
540.5705	73.273796
540.08026	73.483093
539.59009	73.809647
539.10187	74.259018
538.61157	74.809792
538.12128	75.496178
537.63092	76.283119
537.14056	77.213539
536.65222	78.242897
536.1618	79.409943
535.67139	80.67083
535.18091	82.074188
534.69043	83.56395
534.20197	85.192917
533.71143	86.922783
533.22083	88.776695
532.73022	90.782448
532.23962	92.916618
531.75104	95.232658
531.26031	97.694008
530.76965	100.22707
530.27893	102.87125
529.78815	105.77717
529.29736	108.89721
528.80658	114.6301
528.31573	120.72958
527.8269	128.91161
527.33606	138.39755
526.84515	150.49477
526.35419	166.34128
525.86322	185.53313
525.37225	217.81749
524.88123	250.88835
524.3902	292.4769
523.89911	349.08524
523.40802	422.16269
522.91687	566
522.42572	727
521.93457	1030
521.44336	1375
520.95215	1768
520.46088	1913
519.9696	1883
519.47833	1543
518.987	1117
518.49561	864
518.00421	566.60107
517.51282	459.45325
517.02136	372.62521
516.52991	309.19611
516.03839	260.15561
515.54688	220.19286
515.05536	188.75935
514.56378	162.71654
514.0722	148.01584
513.58057	136.00282
513.08893	126.27794
512.59723	118.8556
512.10553	113.59992
511.6138	108.79698
511.12204	104.3592
510.63028	100.31159
510.13846	96.616997
509.64459	93.241501
509.15271	90.213821
508.66083	87.657288
508.16891	85.540833
507.67697	83.754219
507.185	82.205566
506.69302	80.851501
506.20099	79.695221
505.70691	78.747543
505.21484	77.888168
504.72272	76.900497
504.23059	75.988647
503.73846	75.159744
503.24628	74.480621
502.75201	73.962723
502.2598	73.795502
501.76752	73.692047
501.27524	73.548355
500.78293	73.378273
500.28854	73.286087
499.79617	73.219986
499.3038	73.090591
498.81137	72.8713
498.31689	72.437431
497.82443	71.848427
497.33191	71.084068
496.83939	70.071274
496.34479	69.046791
495.85223	68.225739
495.35962	67.567421
494.86697	67.067131
494.37228	66.749832
493.87961	66.651192
493.3869	66.696701
492.89212	66.81826
492.39935	66.856728
491.90656	66.788612
491.41168	66.585754
490.91885	66.294678
490.42599	65.856422
489.93103	65.304298
489.43811	64.680244
488.94516	64.037743
488.45013	63.419205
487.95715	62.892082
487.46411	62.409508
486.96902	62.029854
486.47592	61.897007
485.98282	61.780193
485.48764	61.593456
484.99448	61.886932
484.49924	62.254993
484.00604	62.656898
483.51279	63.169502
483.01746	63.655746
482.52417	64.070313
482.02881	64.426315
481.53546	64.720741
481.04004	64.933846
480.54663	65.105049
480.05319	65.139122
479.55771	65.164818
479.06421	65.174835
478.56866	65.198326
478.07513	65.21019
477.57953	65.230904
477.08594	65.236412
476.59027	65.252731
476.09662	65.254753
475.60092	65.267487
475.10721	65.268158
474.61145	65.277946
474.11771	65.278824
473.62189	65.285812
473.12808	65.290146
472.6322	65.294075
472.13834	65.303375
471.6424	65.303009
471.14645	65.322403
470.65253	65.33416
470.15649	65.333801
469.66251	65.348076
469.16644	65.328194
468.67239	65.530067
468.1763	65.420181
467.68015	65.321426
467.18604	65.192474
466.68982	65.064224
466.19565	64.925995
465.6994	64.793739
465.20313	64.664566
464.70886	64.536003
464.21252	64.235786
463.71616	64.177345
463.22183	64.120995
462.7254	64.088112
462.23102	64.068695
461.73456	64.063774
461.23807	64.080528
460.74359	64.103424
460.24704	64.15152
459.75046	64.456596
459.25388	64.637741
458.75931	64.775757
458.26263	64.924049
457.76596	65.074867
457.2713	65.224594
456.77457	65.382446
456.2778	65.529884
455.78305	65.690613
455.28625	65.847206
454.7894	66.004585
454.29254	66.123619
453.7977	66.28476
453.30075	66.37307
452.8038	66.522507
452.30682	66.661751
451.80984	66.803925
451.31485	66.924179
450.81778	67.057327
450.32071	67.190498
449.82361	67.321762
449.32852	67.443977
448.83133	67.569672
448.33414	67.687614
447.83691	67.793869
447.33969	67.901405
446.84241	67.988571
446.34717	68.082924
445.84982	68.168274
445.35248	68.220818
444.8551	68.280983
444.3577	68.333488
443.86026	68.337418
443.36279	68.350235
442.86734	68.322357
442.36984	68.297508
441.87228	68.235901
441.37473	68.167999
440.87714	68.074364
440.37949	67.971802
439.88184	67.850899
439.38416	67.719246
438.88647	67.575874
438.38873	67.421295
437.89096	67.261887
437.39523	67.092606
436.89743	66.925453
436.3996	66.754005
435.90173	66.590569
435.40384	66.430634
434.90591	66.292816
434.40796	66.136742
433.90997	66.016747
433.41199	65.90435
432.91394	65.835251
432.41589	65.961777
431.91782	66.161095
431.41971	66.441513
430.92157	67.574059
430.4234	69.555481
429.9252	70.295654
429.42697	70.568726
428.92874	70.412491
428.43048	69.856865
427.93216	68.976669
427.43384	67.750519
426.93549	66.471825
426.43506	65.445175
425.93665	64.498329
425.4382	63.471119
424.93973	62.702316
424.44125	62.189594
423.94275	62.680916
423.44418	64.573471
422.94562	64.981422
422.44702	65.361031
421.94839	65.826874
421.44974	66.46891
420.94901	67.894516
420.45032	68.825531
419.95157	69.211174
419.45282	69.1521
418.95401	68.163757
418.4552	67.53508
417.95636	67.20153
417.45544	67.19754
416.95654	67.680222
416.45761	68.334633
415.95868	68.856796
415.45969	69.259285
414.96069	69.502357
414.45959	69.637894
413.96054	69.673416
413.46146	69.687111
412.96234	69.667992
412.46115	69.674629
411.96198	69.716507
411.46277	69.824715
410.96356	70.026733
410.46432	70.296364
409.96298	70.728653
409.46368	71.222862
408.96436	71.826782
408.465	72.490768
407.96353	73.554482
407.46411	75.584846
406.96469	78.433632
406.46317	80.566994
405.96365	84.109787
405.46414	89.004387
404.9646	94.713379
404.46295	100.49914
403.96335	104.21757
403.46375	106.92578
402.96201	102.03788
402.46234	96.874092
401.96262	87.138718
401.46082	83.583214
400.96106	78.817978
400.46127	75.565269
399.95938	72.721489
399.45953	70.30751
398.95758	68.298225
398.4577	66.669586
397.95776	65.430115
397.45575	64.562355
396.95575	64.058495
396.45367	63.904358
395.95364	64.072952
395.45358	64.549393
394.95142	65.112595
394.45132	65.662376
393.9491	66.158516
393.44891	66.322838
392.94873	66.495995
392.44644	66.656265
391.94617	66.779228
391.44382	66.859306
390.94351	66.890724
390.44113	66.864784
389.94077	66.793198
389.43829	66.629791
388.93787	66.439026
388.43536	66.2621
387.93491	66.428711
387.43231	67.841454
386.93179	69.311569
386.42917	70.998131
385.92859	72.654869
385.4259	74.160652
384.92529	75.62812
384.42255	76.704605
383.92188	77.3507
383.41907	77.578453
382.91833	77.392105
382.4155	76.73259
381.91467	75.543747
381.4118	73.771095
380.90887	72.031715
380.40799	70.40937
379.905	68.96035
379.40408	67.736023
378.90103	66.706924
378.39798	65.93972
377.89694	65.466286
377.39383	65.404716
376.89276	65.733513
376.38959	66.044739
375.88638	66.332794
375.38525	66.515251
374.88199	66.570305
374.37872	66.520142
373.87747	66.175636
373.37415	65.750214
372.87076	65.29351
372.36945	64.823463
371.86603	64.38279
371.36258	63.968113
370.86118	63.692768
370.3577	63.416588
369.85416	63.383358
369.35269	63.550663
368.84909	63.942543
368.34549	64.395309
367.84393	64.798874
367.34024	65.15387
366.83655	65.408318
366.33282	65.532074
365.83118	64.977066
365.32739	64.486595
364.82358	63.860687
364.31976	63.1656
363.81796	62.498432
363.31409	61.403206
362.81018	60.568073
362.30624	60.117306
361.80435	59.956375
361.30035	59.979767
360.79633	60.467911
360.29227	61.03606
359.78818	61.536606
359.28616	62.173252
358.78201	62.421841
358.27786	62.619205
357.77368	62.739902
357.26947	62.811111
356.76523	62.801388
356.26303	62.744469
355.75873	62.66077
355.25439	62.555603
354.75003	62.469948
354.24567	62.371555
353.74124	62.258034
353.23682	62.130955
352.73444	62.007275
352.22992	61.88345
351.7254	61.771809
351.22086	61.674152
350.71631	61.591335
350.2117	61.526306
349.70706	61.486179
349.20239	61.465515
348.69772	61.492847
348.19299	61.591412
347.68826	61.804447
347.18558	62.058578
346.68079	62.566216
346.17596	63.076756
345.67111	63.801277
345.16623	64.383507
344.66132	64.907799
344.1564	65.377129
343.65143	65.747719
343.14645	65.541458
342.64142	65.267281
342.13638	64.809517
341.63132	64.12661
341.12622	63.277775
340.62109	62.710701
340.11594	62.132275
339.61075	62.196171
339.10553	62.132847
338.60031	62.304932
338.09503	62.515388
337.58975	62.762917
337.08441	63.054062
336.577	63.374657
336.07162	63.837696
335.56622	64.112839
335.06079	64.36882
334.55533	64.592865
334.04984	64.794334
333.54431	64.94503
333.03879	65.098808
332.5332	65.207687
332.02762	65.380905
331.52197	65.470528
331.01425	65.535385
330.50858	65.63987
330.00287	65.615227
329.49713	65.610535
328.99136	65.567383
328.48557	65.541161
327.97974	65.484993
327.47391	65.444557
326.96594	65.381294
326.46005	65.32618
325.9541	65.261627
325.44815	65.197845
324.94217	65.139008
324.43408	65.079704
323.92804	65.034531
323.42197	64.992851
322.91586	64.969475
322.40973	64.957024
321.90152	64.941803
321.39532	64.993019
320.88913	65.015739
320.38287	65.116249
319.87662	65.18795
319.36826	65.384018
318.86194	65.567245
318.35559	65.885857
317.84921	66.109253
317.34073	66.39798
316.83429	66.668648
316.32782	66.990532
315.81927	67.324982
315.31274	67.668961
314.80621	68.011688
314.29965	68.348526
313.79095	68.679131
313.28433	68.974182
312.77768	68.721695
312.26892	67.321724
311.76221	66.199112
311.25546	65.099213
310.74661	64.213577
310.23984	65.159576
309.733	65.69973
309.22409	66.261208
308.71719	67.741821
308.2103	68.442589
307.70129	68.527138
307.19434	68.444145
306.68524	68.571793
306.17825	68.832214
305.6712	69.08046
305.16205	69.482895
304.65494	69.944557
304.14572	70.425949
303.63858	70.877609
303.13141	71.320412
302.6221	71.869751
302.11487	72.066475
301.6055	72.181442
301.09821	72.20665
300.58881	72.164803
300.08145	72.03199
299.5741	71.791313
299.06461	71.499535
298.55716	71.153534
298.04761	70.770561
297.54013	70.353271
297.03052	69.954666
296.52298	69.530388
296.01331	69.132164
295.50571	68.68425
294.996	68.162384
294.48834	67.513817
293.97858	66.79689
293.47086	66.024696
292.96103	65.227516
292.45328	64.405296
291.94339	63.621109
291.43555	62.849583
290.92563	62.112381
290.41565	61.406284
289.90775	62.236343
289.39771	62.149799
288.88974	62.130829
288.37967	62.18071
287.87164	62.29649
287.36151	62.483017
286.85135	62.700344
286.34323	63.159214
285.83304	63.632416
285.32486	64.110023
284.81458	64.579224
284.30429	65.003128
283.79605	65.472214
283.28568	65.878464
282.77737	65.959251
282.26697	65.896278
281.7565	65.780029
281.24814	65.666527
280.73764	65.420174
280.22711	65.268898
279.71863	64.97113
279.20804	64.680954
278.69742	64.376678
278.18887	64.093216
277.67822	63.788586
277.16751	63.513538
276.65677	63.221432
276.14813	62.945686
275.63733	62.633236
275.12653	62.356476
274.61777	62.080605
274.1069	61.822311
273.59601	61.56567
273.08508	61.319084
272.57623	61.08474
272.06525	60.852505
271.55423	60.643894
271.04321	60.430126
270.53424	60.197384
270.02313	60.055695
269.51202	59.900097
269.00085	59.699314
268.49179	59.672043
267.98059	59.618374
267.46933	59.634186
266.95807	59.625942
266.44678	59.673317
265.93756	59.708458
265.42621	59.859695
264.91486	59.881321
264.40344	59.962605
263.892	60.140465
263.38055	60.085087
262.87115	59.997189
262.35965	59.896
261.84808	59.804749
261.33652	59.268242
260.82492	58.941856
260.31329	58.724331
259.80164	58.427528
259.29205	58.195667
258.78033	57.776836
258.26859	57.752575
257.75681	57.746113
257.24503	57.908745
256.73318	58.041779
256.22134	58.157253
255.70946	58.347389
255.19754	58.517597
254.68559	58.673798
254.17363	58.846832
253.66164	59.007851
253.1517	59.165012
252.63965	59.322414
252.12758	59.455467
251.61546	59.603001
251.10332	59.705814
250.59116	59.715553
250.07896	59.757416
249.56674	59.830681
249.05449	59.836876
248.54221	59.871349
248.02991	59.895866
247.51756	59.919147
247.0052	59.936035
246.49281	59.9408
245.98039	59.948223
245.46794	59.932652
244.95546	59.923153
244.44295	59.884476
243.93042	59.847107
243.41786	59.783215
242.90527	59.713745
242.39055	59.623646
241.8779	59.521603
241.36522	59.405598
240.85252	59.2738
240.33978	59.13343
239.82703	58.977169
239.31424	58.814442
238.80142	58.635151
238.28857	58.457047
237.7757	58.2686
237.2628	58.088013
236.74776	57.936771
236.2348	59.425415
235.72182	59.937283
235.2088	60.164951
234.69576	60.255543
234.18268	60.268593
233.66957	60.192795
233.15434	60.110867
232.64119	60.069485
232.12801	59.811794
231.61479	59.608852
231.10155	59.276569
230.58827	59.13335
230.07286	59.111298
229.55954	59.074718
229.04619	59.037571
228.53279	58.994076
228.01938	58.930092
227.50383	58.857235
226.99037	58.775436
226.47687	58.711315
225.96333	58.504383
225.44978	58.229969
224.9341	57.939949
224.42049	57.561649
223.90685	57.158398
223.39317	56.731236
222.87737	56.29929
222.36363	55.869049
221.84988	55.430321
221.334	55.001629
220.82018	54.588943
220.30634	54.212749
219.79248	53.854397
219.27647	53.533794
218.76254	53.241966
218.2486	52.987534
217.7325	52.934414
217.21849	53.056072
216.70445	53.212463
216.18828	53.38522
215.67418	53.594135
215.16005	53.837276
214.6438	54.101322
214.12961	54.380264
213.6154	54.672733
213.09904	54.968636
212.58478	55.215691
212.07048	55.208969
211.55406	54.77747
211.0397	54.473679
210.52321	54.15633
210.0088	53.832497
209.49437	53.49876
208.97778	53.162933
208.46329	52.822304
207.94666	52.47242
207.4321	52.131847
206.91753	52.08202
206.4008	52.232269
205.88617	52.438572
205.36938	52.650635
204.85469	52.877674
204.33786	53.111095
203.8231	53.347015
203.30621	53.574783
202.79141	53.778889
202.27657	53.992622
201.7596	53.758938
201.24469	53.782772
200.72766	53.842278
200.21271	53.898422
199.69562	53.938618
199.1806	53.959869
198.66345	53.931202
198.14839	53.869022
197.63118	53.724777
197.11395	53.729572
196.5988	53.349876
196.0815	52.958576
195.5663	52.508205
195.04893	52.062664
194.53368	51.634541
194.01627	51.149319
193.50095	50.756821
192.98347	50.523548
192.46809	50.754166
191.95058	50.935902
191.43301	51.27562
190.91756	51.596672
190.39995	51.942089
189.88441	52.287975
189.36676	52.641922
188.84906	52.995922
188.33345	53.332367
187.81569	53.667671
187.30003	53.582493
186.78221	53.779823
186.26437	53.957527
185.74863	54.093521
185.23073	54.20874
184.7128	54.282719
184.19696	54.326012
183.67897	54.336365
183.16096	54.30114
182.64503	54.243053
182.12697	54.147388
181.60887	54.010433
181.09286	53.811996
180.57471	53.722111
180.05652	53.218647
179.54042	52.669426
179.02219	52.123032
178.50391	51.554165
177.98561	50.927696
177.46939	50.335926
176.95103	49.863014
176.43265	49.385803
175.91423	48.973965
175.3979	48.614002
174.87944	48.623466
174.36093	48.550762
173.84241	48.54459
173.32596	48.600307
172.80737	48.681168
172.28876	48.808655
171.77011	48.958069
171.25356	49.1675
170.73485	49.378216
170.21611	49.64822
169.69736	49.909595
169.17856	50.234509
168.66187	50.535019
168.14301	50.929344
167.62413	51.45982
167.10522	51.959526
166.58629	52.495537
166.06734	53.03516
165.55046	53.558418
165.03143	54.027424
164.51239	54.418983
163.9933	54.709839
163.4742	54.396561
162.95506	54.195652
162.4359	53.824089
161.9167	53.405849
161.3996	52.9058
160.88034	52.352272
160.36105	51.76104
159.84175	51.147739
159.3224	50.559448
158.80304	49.959618
158.28365	49.736378
157.76422	49.56636
157.24477	49.643799
156.72528	50.138035
156.20576	52.196194
155.68622	52.675613
155.16878	52.975594
154.64917	53.085194
154.12955	53.027798
153.60988	52.735115
153.09019	52.132954
152.57048	51.026306
152.05074	50.299152
151.53096	49.713619
151.01115	49.19239
150.49133	48.747662
149.97147	48.490711
149.45158	48.5667
148.93166	48.92791
148.41171	49.247833
147.89174	49.406971
147.37173	49.54966
146.8517	49.684643
146.33163	49.809631
145.81154	49.92136
145.28929	50.028076
144.76913	50.122425
144.24896	50.21386
143.72874	50.29855
143.20851	50.379108
142.68825	50.464363
142.16795	50.541561
141.64763	50.64275
141.12727	50.724823
140.60689	50.844791
140.08647	50.936871
139.56604	51.064308
139.04556	51.167728
138.52293	51.28476
138.00241	51.398712
