1.7892661	2364.866
1.7893994	2380.4719
1.7895323	2393.7227
1.7896655	2403.2627
1.7897985	2411.1702
1.7899318	2419.281
1.7900648	2426.7615
1.790198	2433.3945
1.7903312	2439.0044
1.7904644	2443.6824
1.7905977	2445.125
1.790731	2445.0806
1.7908642	2445.1313
1.7909976	2446.1636
1.7911309	2447.0959
1.7912642	2448.1348
1.7913977	2449.3628
1.791531	2450.8525
1.7916645	2452.6812
1.7917979	2454.4377
1.7919314	2456.2065
1.7920648	2458.0754
1.7921984	2460.5796
1.7923318	2463.8906
1.7924654	2467.8188
1.792599	2472.561
1.7927326	2476.9673
1.7928661	2480.9636
1.7929999	2484.344
1.7931334	2487.6582
1.7932671	2491.1665
1.7934008	2495.3193
1.7935345	2499.4556
1.7936683	2504.0364
1.793802	2508.6648
1.7939358	2513.1802
1.7940696	2517.74
1.7942034	2522.175
1.7943373	2526.4414
1.794471	2530.3718
1.794605	2534.105
1.794739	2537.7046
1.7948728	2541.0093
1.7950069	2544.1565
1.7951409	2546.9575
1.7952749	2549.324
1.7954088	2551.3203
1.7955428	2552.6572
1.7956769	2553.9966
1.7958111	2555.3098
1.795945	2556.8047
1.7960793	2559.1987
1.7962134	2562.6589
1.7963476	2566.4185
1.7964818	2569.9263
1.796616	2569.8308
1.7967502	2569.7236
1.7968845	2574.6472
1.7970188	2580.2993
1.7971531	2585.655
1.7972875	2591.0239
1.7974217	2594.9451
1.797556	2598.8398
1.7976905	2602.2114
1.7978249	2605.6211
1.7979593	2608.3982
1.7980938	2611.4558
1.7982283	2614.2329
1.7983627	2616.6272
1.7984973	2618.7339
1.7986318	2620.1443
1.7987664	2620.5691
1.798901	2620.5522
1.7990355	2618.2063
1.7991703	2615.2256
1.7993048	2612.5972
1.7994395	2611.6682
1.7995743	2611.1304
1.799709	2611.4026
1.7998437	2612.4143
1.7999784	2613.7739
1.8001132	2616.876
1.8002479	2620.6216
1.8003827	2624.8384
1.8005176	2629.1792
1.8006524	2632.9939
1.8007873	2636.9363
1.8009224	2640.6082
1.8010572	2642.8206
1.8011922	2643.1531
1.8013271	2642.9287
1.8014621	2641.8335
1.8015971	2639.7866
1.8017323	2637.137
1.8018672	2634.1611
1.8020023	2631.0051
1.8021374	2628.5833
1.8022726	2626.3164
1.8024077	2625.605
1.8025429	2625.6958
1.8026781	2626.5432
1.8028132	2628.6997
1.8029486	2631.9822
1.8030838	2635.5293
1.803219	2639.0618
1.8033544	2641.4775
1.8034897	2642.6011
1.803625	2642.9607
1.8037604	2642.5513
1.8038958	2641.0886
1.8040311	2637.9143
1.8041667	2633.5203
1.8043021	2628.1282
1.8044375	2622.3149
1.8045731	2618.2119
1.8047086	2614.176
1.8048441	2611.5396
1.8049797	2610.6428
1.8051152	2612.6074
1.8052509	2616.6548
1.8053864	2622.856
1.8055222	2628.645
1.8056577	2635.7412
1.8057935	2640.252
1.8059292	2642.3477
1.8060651	2643.0737
1.8062007	2640.2439
1.8063365	2641.7974
1.8064723	2643.3813
1.8066082	2644.4226
1.806744	2645.4155
1.8068799	2646.3191
1.8070159	2647.3713
1.8071517	2648.7825
1.8072877	2652.0522
1.8074236	2654.2844
1.8075596	2653.6995
1.8076956	2651.4075
1.8078315	2648.499
1.8079677	2642.6536
1.8081037	2640.6208
1.8082398	2639.4995
1.808376	2639.0134
1.808512	2638.1384
1.8086482	2636.8372
1.8087845	2636.1953
1.8089206	2636.719
1.8090568	2638.238
1.8091931	2643.1775
1.8093294	2647.1199
1.8094655	2648.8069
1.8096019	2649.9573
1.8097383	2649.4229
1.8098747	2648.6794
1.8100109	2647.9658
1.8101474	2647.1824
1.8102838	2646.7952
1.8104203	2646.749
1.8105568	2647.1963
1.8106933	2648.0938
1.8108296	2649.2847
1.8109663	2650.6353
1.8111029	2652.396
1.8112394	2654.6067
1.8113761	2657.5837
1.8115127	2661.3748
1.8116493	2668.6233
1.8117861	2675.5298
1.8119226	2682.3201
1.8120593	2688.5947
1.812196	2693.3096
1.8123327	2697.2224
1.8124696	2700.4763
1.8126063	2703.0842
1.8127432	2704.9629
1.81288	2706.1187
1.8130169	2706.46
1.8131539	2706.2
1.8132907	2705.4004
1.8134277	2703.0569
1.8135647	2700.8191
1.8137016	2699.0959
1.8138386	2701.0767
1.8139756	2704.4717
1.8141127	2709.4958
1.8142496	2715.7939
1.8143868	2723.7793
1.8145239	2732.9695
1.8146611	2742.6467
1.8147982	2751.5127
1.8149354	2760.2046
1.8150725	2768.4021
1.8152097	2776.1558
1.815347	2783.3611
1.8154844	2789.7285
1.8156216	2795.8848
1.8157589	2801.5359
1.8158963	2806.9373
1.8160336	2811.8809
1.8161711	2816.4941
1.8163084	2820.0674
1.8164458	2823.2322
1.8165833	2826.5662
1.8167206	2831.1567
1.8168583	2836.061
1.8169957	2841.4448
1.8171332	2847.5364
1.8172709	2854.2683
1.8174084	2861.0891
1.817546	2868.0806
1.8176836	2874.5605
1.8178213	2880.6306
1.817959	2885.5039
1.8180965	2889.9326
1.8182343	2894.2122
1.818372	2898.333
1.8185099	2902.1284
1.8186476	2906.0837
1.8187854	2910.1155
1.8189234	2913.7686
1.819061	2917.4724
1.8191991	2920.6799
1.8193369	2922.0437
1.8194747	2923.9434
1.8196127	2926.3994
1.8197507	2930.7058
1.8198887	2935.8457
1.8200266	2941.2656
1.8201647	2946.0591
1.8203027	2950.679
1.8204409	2955.1663
1.8205788	2960.1145
1.8207171	2965.0986
1.8208551	2970.9338
1.8209933	2977.7222
1.8211315	2984.6868
1.8212698	2991.7788
1.821408	2998.7917
1.8215462	3005.3188
1.8216845	3010.2322
1.8218228	3014.7288
1.8219612	3017.0774
1.8220996	3017.9092
1.8222377	3019.3569
1.8223763	3019.9019
1.8225145	3018.0298
1.8226531	3013.5391
1.8227916	3006.9343
1.8229299	3000.7917
1.8230685	2996.2141
1.823207	2995.0713
1.8233457	2995.6831
1.8234841	2997.6631
1.8236227	3003.0344
1.8237613	3010.4883
1.8238999	3018.7273
1.8240386	3026.7302
1.8241773	3034.3855
1.824316	3041.8992
1.8244547	3048.7854
1.8245934	3055.1714
1.8247322	3060.5405
1.8248711	3065.1155
1.8250099	3067.9517
1.8251486	3065.0503
1.8252875	3059.7695
1.8254265	3053.9707
1.8255653	3048.6846
1.8257043	3044.1191
1.8258433	3040.2373
1.8259823	3037.9861
1.8261211	3035.2083
1.8262602	3033.6934
1.8263992	3033.2734
1.8265383	3034.3088
1.8266774	3036.9829
1.8268166	3040.6003
1.8269557	3045.3308
1.8270948	3050.9973
1.827234	3057.0676
1.8273733	3064.2568
1.8275125	3071.1123
1.8276517	3076.7734
1.827791	3080.9209
1.8279303	3083.6563
1.8280696	3084.3613
1.8282089	3083.3313
1.8283483	3081.6011
1.8284876	3079.3657
1.8286271	3076.7622
1.8287665	3075.3914
1.8289059	3073.667
1.8290454	3071.6489
1.8291849	3070.0972
1.8293244	3068.1758
1.8294641	3066.4727
1.8296036	3065.2131
1.8297431	3064.7498
1.8298827	3065.2085
1.8300223	3067.1045
1.830162	3069.9458
1.8303016	3074.5959
1.8304415	3078.8047
1.8305812	3080.7888
1.8307209	3082.0361
1.8308606	3082.947
1.8310004	3083.9736
1.8311404	3085.5322
1.8312802	3088.8914
1.8314199	3094.2148
1.8315599	3099.1523
1.8316998	3102.3281
1.8318398	3105.8303
1.8319796	3110.3188
1.8321196	3114.8071
1.8322598	3119.907
1.8323997	3125.0134
1.8325397	3130.3274
1.8326799	3135.7952
1.8328199	3141.3008
1.83296	3146.8486
1.8331002	3152.6133
1.8332404	3157.8198
1.8333805	3162.8582
1.8335208	3167.8892
1.833661	3172.7168
1.8338013	3177.4785
1.8339415	3182.1328
1.8340818	3186.8584
1.8342222	3191.4905
1.8343624	3196.126
1.8345029	3201.3501
1.8346432	3206.4165
1.8347837	3211.7053
1.8349241	3216.8435
1.8350646	3223.0459
1.835205	3230.0532
1.8353456	3237.252
1.8354861	3245.3804
1.8356267	3253.2661
1.8357671	3259.6707
1.8359078	3267.7522
1.8360484	3275.5681
1.8361892	3283.2371
1.8363297	3289.8455
1.8364705	3293.3381
1.836611	3295.6335
1.8367518	3296.5005
1.8368927	3296.7971
1.8370334	3296.436
1.8371743	3296.5671
1.837315	3297.9348
1.8374559	3301.1924
1.8375968	3306.2654
1.8377377	3315.0925
1.8378786	3325.6729
1.8380196	3337.3547
1.8381605	3349.8081
1.8383015	3360.9075
1.8384426	3372.6812
1.8385835	3385.4053
1.8387246	3397.5686
1.8388658	3408.7573
1.8390069	3418.4023
1.8391479	3425.6597
1.8392891	3431.0986
1.8394303	3434.5967
1.8395716	3436.74
1.8397126	3437.0249
1.8398539	3435.0525
1.8399953	3431.8635
1.8401365	3431.6841
1.8402779	3433.3586
1.8404191	3434.5955
1.8405604	3435.9268
1.8407019	3437.2146
1.8408433	3439.374
1.8409848	3442.1062
1.8411263	3446.2466
1.8412677	3452.1531
1.8414091	3458.7576
1.8415507	3464.9019
1.8416922	3469.9771
1.8418338	3475.7273
1.8419755	3482.1814
1.8421171	3489.4175
1.8422587	3496.5955
1.8424004	3504.1375
1.8425421	3511.8196
1.8426838	3519.8765
1.8428255	3525.8103
1.8429673	3530.3777
1.843109	3532.6482
1.8432509	3532.7263
1.8433927	3532.9192
1.8435346	3533.8479
1.8436764	3536.5439
1.8438183	3539.8103
1.8439602	3543.364
1.8441021	3546.9277
1.8442441	3550.3965
1.8443861	3553.3418
1.8445281	3555.677
1.8446702	3557.5647
1.8448122	3558.918
1.8449544	3559.8389
1.8450965	3560.0415
1.8452386	3559.448
1.8453808	3558.5195
1.8455229	3559.9739
1.8456651	3562.3049
1.8458073	3564.2856
1.8459496	3566.5835
1.8460919	3567.1716
1.8462342	3568.0613
1.8463764	3569.1299
1.8465188	3573.384
1.8466612	3578.7036
1.8468035	3584.6145
1.846946	3589.5979
1.8470883	3595.4812
1.8472309	3602.2917
1.8473734	3608.8433
1.8475158	3614.7568
1.8476583	3619.8462
1.847801	3623.3386
1.8479435	3625.9495
1.8480861	3627.521
1.8482288	3628.3726
1.8483714	3627.1804
1.8485141	3625.2148
1.8486569	3622.8459
1.8487995	3620.3435
1.8489422	3620.2532
1.8490851	3619.9048
1.8492278	3620.364
1.8493705	3621.6423
1.8495134	3624.1438
1.8496562	3622.9954
1.8497993	3624.8103
1.8499421	3630.7676
1.8500849	3639.4736
1.850228	3648.76
1.8503709	3658.6487
1.8505139	3667.3145
1.8506569	3673.5286
1.8508	3677.1309
1.8509431	3678.0042
1.8510863	3678.073
1.8512293	3677.6812
1.8513725	3677.7883
1.8515155	3678.2141
1.8516588	3679.3716
1.851802	3680.7273
1.8519453	3682.2612
1.8520885	3684.0596
1.8522317	3685.6597
1.8523751	3686.3877
1.8525184	3685.8704
1.8526618	3686.0107
1.8528051	3689.9421
1.8529485	3691.2109
1.8530921	3692.2183
1.8532354	3692.0701
1.853379	3690.5588
1.8535223	3688.8113
1.8536659	3686.7798
1.8538095	3686.23
1.853953	3686.5811
1.8540967	3687.9175
1.8542403	3691.1543
1.8543839	3696.5754
1.8545276	3703.5103
1.8546712	3711.4089
1.854815	3719.4348
1.8549587	3728.6406
1.8551024	3735.7002
1.8552463	3738.9614
1.8553901	3740.9578
1.8555338	3741.7173
1.8556777	3741.0349
1.8558216	3739.218
1.8559656	3739.8794
1.8561095	3742.4163
1.8562534	3748.155
1.8563974	3757.4136
1.8565414	3762.6899
1.8566854	3768.2188
1.8568295	3773.2942
1.8569735	3777.9224
1.8571175	3782.1423
1.8572617	3785.3979
1.8574058	3787.2778
1.85755	3788.0229
1.8576943	3787.5396
1.8578384	3784.6123
1.8579826	3778.562
1.858127	3771.9351
1.8582712	3766.624
1.8584156	3763.8601
1.8585597	3763.9082
1.8587041	3765.6108
1.8588485	3768.8137
1.8589929	3773.4658
1.8591373	3779.3054
1.8592818	3786.0991
1.8594263	3793.1589
1.8595707	3799.6809
1.8597152	3805.0874
1.8598598	3809.4685
1.8600044	3812.8254
1.8601489	3815.1199
1.8602937	3816.8894
1.8604383	3817.1152
1.8605831	3815.9263
1.8607277	3814.1567
1.8608724	3815.4741
1.8610171	3820.449
1.8611618	3821.1006
1.8613067	3820.0298
1.8614514	3817.7573
1.8615962	3814.9661
1.8617412	3813.4775
1.8618861	3819.7627
1.862031	3821.4199
1.8621758	3821.9814
1.8623208	3821.3079
1.8624657	3819.8037
1.8626109	3816.9875
1.8627559	3813.1006
1.8629009	3808.7769
1.8630459	3802.8401
1.863191	3802.3152
1.8633362	3805.5227
1.8634814	3811.0581
1.8636265	3817.4285
1.8637717	3826.1897
1.863917	3835.0701
1.8640622	3843.2778
1.8642074	3849.8179
1.8643528	3855.8499
1.864498	3860.9714
1.8646433	3865.3726
1.8647887	3868.8489
1.8649342	3871.1589
1.8650795	3872.3499
1.8652248	3872.2288
1.8653705	3871.1582
1.8655158	3869.4006
1.8656615	3867.7991
1.8658069	3867.6101
1.8659525	3868.6926
1.8660982	3871.3223
1.8662437	3876.0947
1.8663894	3882.4707
1.8665349	3890.1863
1.8666806	3897.061
1.8668264	3896.8943
1.8669721	3900.3992
1.8671179	3903.5728
1.8672636	3908.3425
1.8674095	3914.3279
1.8675551	3915.27
1.8677012	3911.679
1.867847	3904.6951
1.8679929	3895.043
1.8681387	3882.6401
1.8682847	3873.7744
1.8684306	3869.0532
1.8685766	3868.239
1.8687227	3881.5854
1.8688687	3897.6638
1.8690147	3919.5151
1.8691609	3912.5671
1.869307	3916.9812
1.8694531	3920.6023
1.8695993	3923.6709
1.8697454	3926.4604
1.8698916	3929.0034
1.870038	3930.9795
1.8701842	3932.3433
1.8703305	3933.4768
1.8704768	3933.04
1.8706231	3932.2542
1.8707695	3931.1299
1.8709159	3932.7729
1.8710622	3935.0496
1.8712087	3937.2786
1.8713552	3936.6479
1.8715016	3938.6238
1.8716481	3944.155
1.8717947	3951.979
1.8719413	3958.8848
1.8720877	3960.9314
1.8722343	3967.5942
1.8723811	3973.7241
1.8725277	3978.4177
1.8726742	3980.5161
1.872821	3980.5496
1.8729677	3977.6167
1.8731146	3973.4502
1.8732613	3968.3591
1.873408	3965.2427
1.8735548	3961.9666
1.8737017	3958.1282
1.8738487	3952.345
1.8739955	3945.9138
1.8741425	3941.0129
1.8742895	3937.6277
1.8744363	3934.4871
1.8745832	3932.2839
1.8747303	3930.5554
1.8748773	3929.8218
1.8750244	3930.3755
1.8751715	3931.6438
1.8753186	3928.6304
1.8754659	3924.4734
1.875613	3918.8115
1.8757602	3913.532
1.8759074	3908.478
1.8760546	3903.8293
1.876202	3900.4895
1.8763492	3897.3977
1.8764966	3897.095
1.8766439	3896.8875
1.8767912	3896.6638
1.8769386	3895.8008
1.877086	3891.854
1.8772335	3887.981
1.8773808	3882.1428
1.8775284	3875.8162
1.8776759	3868.9304
1.8778234	3861.5842
1.8779709	3854.1233
1.8781185	3847.1396
1.8782661	3840.4358
1.8784137	3833.5073
1.8785614	3826.6353
1.8787092	3819.7107
1.8788569	3812.7478
1.8790046	3805.6702
1.8791523	3797.9663
1.8793	3790.2026
1.8794478	3781.8281
1.8795956	3773.6799
1.8797436	3765.562
1.8798915	3757.7214
1.8800393	3750.1787
1.8801873	3742.9209
1.8803351	3736.2622
1.8804833	3729.5962
1.8806312	3723.2173
1.8807791	3718.8452
1.8809272	3716.1338
1.8810754	3711.7466
1.8812234	3707.1321
1.8813715	3702.6431
1.8815197	3697.4089
1.881668	3691.9009
1.8818161	3685.5466
1.8819643	3678.8728
1.8821126	3672.3508
1.8822609	3668.2729
1.8824091	3665.2708
1.8825575	3660.4006
1.8827058	3652.1982
1.8828541	3643.5112
1.8830026	3634.5095
1.8831511	3626.2581
1.8832994	3617.4834
1.883448	3609.2761
1.8835964	3601.4656
1.8837451	3594.0122
1.8838935	3587.1465
1.884042	3580.9973
1.8841907	3576.116
1.8843392	3571.4854
1.884488	3567.2124
1.8846366	3564.5059
1.8847854	3561.8313
1.8849341	3559.116
1.8850828	3555.6775
1.8852315	3551.083
1.8853804	3544.915
1.8855292	3538.063
1.8856781	3530.5886
1.8858268	3522.3535
1.8859758	3513.2214
1.8861247	3503.3875
1.8862737	3493.1382
1.8864226	3483.2527
1.8865716	3473.6719
1.8867205	3466.8574
1.8868697	3461.0229
1.8870188	3454.322
1.8871678	3446.8772
1.8873171	3440.02
1.8874661	3434.0681
1.8876153	3429.8301
1.8877646	3425.5684
1.8879137	3422.4282
1.888063	3419.5691
1.8882123	3416.6841
1.8883615	3413.7358
1.8885108	3410.0786
1.8886603	3406.4197
1.8888096	3402.4282
1.8889589	3398.1194
1.8891084	3393.4219
1.8892578	3388.0803
1.8894073	3381.8274
1.8895569	3375.1406
1.8897063	3366.8611
1.8898559	3357.8281
1.8900055	3348.5417
1.8901551	3340.9297
1.8903046	3334.8433
1.8904543	3328.9131
1.890604	3323.3916
1.8907537	3318.4336
1.8909035	3313.3835
1.8910531	3308.0459
1.8912029	3302.8701
1.8913528	3296.9302
1.8915026	3293.6121
1.8916525	3290.624
1.8918023	3288.7068
1.891952	3286.5083
1.892102	3284.4363
1.892252	3281.5276
1.8924021	3278.7854
1.892552	3276.2893
1.8927021	3272.9053
1.8928522	3269.5146
1.8930023	3266.2634
1.8931521	3263.2007
1.8933023	3260.1431
1.8934525	3257.6074
1.8936026	3255.1179
1.8937529	3252.4673
1.8939031	3249.6067
1.8940533	3246.0952
1.8942037	3242.4617
1.894354	3238.0872
1.8945043	3233.0356
1.8946546	3227.2065
1.8948051	3220.9768
1.8949554	3212.6296
1.8951058	3203.5134
1.8952563	3192.437
1.8954067	3184.1252
1.8955573	3176.7649
1.8957077	3167.7126
1.8958583	3157.7124
1.8960088	3148.6567
1.8961596	3140.8501
1.8963103	3134.8472
1.8964609	3129.46
1.8966116	3125.7227
1.8967623	3120.25
1.8969129	3112.9243
1.8970637	3104.2034
1.8972145	3095.9412
1.8973652	3086.4092
1.8975163	3076.4587
1.8976671	3066.2715
1.897818	3055.8906
1.8979688	3045.5444
1.8981197	3035.377
1.8982706	3025.884
1.8984218	3017.2119
1.8985728	3009.0535
1.8987237	3001.7703
1.8988748	2995.4417
1.8990258	2990.8054
1.8991771	2986.4976
1.8993282	2982.2656
1.8994793	2977.6902
1.8996304	2973.1501
1.8997818	2966.916
1.899933	2960.4883
1.9000841	2953.4009
1.9002357	2946.1335
1.9003869	2938.2822
1.9005382	2929.7991
1.9006896	2920.7896
1.900841	2911.8208
1.9009924	2903.3545
1.9011439	2895.6365
1.9012953	2892.1072
1.9014467	2889.3965
1.9015983	2887.7358
1.9017498	2885.0928
1.9019014	2878.4473
1.9020531	2871.1936
1.9022046	2863.9084
1.9023563	2856.6033
1.902508	2850.2598
1.9026597	2844.3647
1.9028114	2838.2285
1.9029632	2832.0432
1.903115	2825.4795
1.9032668	2819.0498
1.9034187	2812.4705
1.9035704	2806.0591
1.9037223	2799.938
1.9038743	2793.4873
1.904026	2787.0281
1.9041781	2780.3562
1.90433	2773.4724
1.9044821	2766.2454
1.904634	2757.9746
1.9047862	2747.4329
1.9049383	2737.1841
1.9050903	2726.8269
1.9052426	2717.4126
1.9053947	2707.9883
1.9055469	2698.4653
1.905699	2688.6362
1.9058514	2678.7034
1.9060037	2669.2585
1.9061558	2660.6648
1.9063083	2652.6172
1.9064605	2646.8391
1.9066129	2642.3213
1.9067653	2638.1702
1.9069177	2633.6914
1.9070702	2628.1873
1.9072227	2622.8247
1.9073751	2616.9729
1.9075277	2610.2053
1.9076803	2602.7957
1.9078327	2594.4971
1.9079854	2584.7642
1.908138	2573.6938
1.9082906	2562.2837
1.9084433	2549.0176
1.9085962	2535.8848
1.9087487	2522.7939
1.9089015	2509.8257
1.9090543	2497.9124
1.9092072	2488.7305
1.9093599	2481.25
1.9095128	2474.3545
1.9096657	2468.3247
1.9098186	2462.9272
1.9099716	2456.0642
1.9101244	2451.5596
1.9102775	2447.0918
1.9104306	2442.6614
1.9105836	2438.0989
1.9107367	2433.0999
1.9108897	2426.2114
1.9110428	2416.5281
1.911196	2407.5913
1.9113492	2398.7852
1.9115024	2390.2166
1.9116555	2383.24
1.9118088	2375.9309
1.9119622	2368.6228
1.9121155	2361.2693
1.9122686	2353.9751
1.9124221	2345.6482
1.9125754	2336.7217
1.9127288	2327.3867
1.9128822	2318.1025
1.9130358	2309.1348
1.9131892	2300.8333
1.9133427	2293.7668
1.9134963	2287.3433
1.9136498	2281.47
1.9138035	2276.1892
1.913957	2271.1328
1.9141107	2267.1304
1.9142643	2263.4326
1.914418	2260.3333
1.9145718	2257.397
1.9147254	2254.3621
1.9148792	2251.6611
1.915033	2248.5527
1.9151868	2244.3298
1.9153407	2238.0601
1.9154946	2231.0884
1.9156483	2221.2407
1.9158024	2210.1506
1.9159564	2198.2827
1.9161104	2185.2068
1.9162644	2171.3081
1.9164183	2156.7261
1.9165725	2142.314
1.9167265	2128.5623
1.9168805	2116.6892
1.9170346	2106.6292
1.917189	2097.6196
1.9173431	2090.3755
1.9174973	2085.1218
1.9176515	2081.281
1.9178058	2078.364
1.91796	2076.2585
1.9181144	2074.4751
1.9182688	2072.7971
1.9184231	2070.9414
1.9185774	2069.2146
1.918732	2067.623
1.9188864	2065.916
1.9190408	2063.9661
1.9191953	2061.5
1.9193499	2058.2363
1.9195044	2054.0095
1.919659	2049.5906
1.9198135	2044.73
1.9199682	2039.1838
1.9201229	2033.0276
1.9202776	2026.7085
1.9204323	2020.4657
1.9205871	2014.5446
1.9207418	2008.4855
1.9208966	2002.6113
1.9210514	1998.0364
1.9212062	1996.1482
1.9213612	1995.6884
1.9215161	1994.7817
1.9216709	1992.6705
1.9218259	1990.3822
1.9219809	1987.4287
1.9221359	1983.9514
1.9222909	1979.8605
1.9224459	1975.2499
1.9226011	1970.0472
1.9227561	1964.5713
1.9229113	1958.6202
1.9230664	1952.0439
1.9232217	1945.4104
1.9233768	1938.3282
1.923532	1931.526
1.9236873	1925.0032
1.9238425	1919.0647
1.923998	1915.368
1.9241532	1913.4899
1.9243087	1912.0078
1.924464	1910.3408
1.9246194	1908.4697
1.9247749	1905.8485
1.9249303	1903.3208
1.9250858	1900.8738
1.9252414	1898.5026
1.925397	1896.2985
1.9255525	1894.5466
1.9257082	1893.0348
1.9258637	1891.4852
1.9260194	1889.8914
1.9261751	1888.229
1.9263308	1886.3208
1.9264866	1883.9963
1.9266423	1881.3009
1.9267982	1878.4376
1.926954	1875.5726
1.9271098	1873.079
1.9272658	1870.4852
1.9274216	1868.0386
1.9275775	1865.379
1.9277335	1862.4496
1.9278893	1858.9113
1.9280454	1855.0118
1.9282016	1850.5841
1.9283576	1845.8324
1.9285136	1840.4761
1.9286698	1834.9818
1.928826	1829.7472
1.928982	1824.5592
1.9291383	1819.98
1.9292945	1816.6267
1.9294508	1814.2754
1.9296069	1812.0547
1.9297633	1809.8715
1.9299196	1807.3501
1.930076	1804.8997
1.9302323	1801.6035
1.9303887	1796.6848
1.9305452	1791.6925
1.9307017	1786.7885
1.9308583	1781.9076
1.9310148	1777.1913
1.9311712	1772.7053
1.9313277	1768.3998
1.9314843	1764.0731
1.931641	1759.7485
1.9317977	1755.5742
1.9319544	1751.6902
1.9321109	1748.0911
1.9322677	1744.8613
1.9324244	1741.5293
1.9325813	1738.2833
1.9327381	1734.4257
1.9328949	1730.0986
1.9330518	1725.2091
1.9332087	1719.9366
1.9333657	1715.0159
1.9335226	1710.3221
1.9336796	1705.7644
1.9338366	1701.3977
1.9339936	1697.0552
1.9341507	1692.3033
1.9343076	1687.248
1.9344647	1681.8087
1.9346218	1676.0864
1.9347789	1670.0908
1.9349362	1663.9987
1.9350934	1657.83
1.9352506	1651.4614
1.935408	1644.9542
1.9355654	1638.7242
1.9357226	1633.2468
1.9358799	1628.9019
1.9360373	1629.4015
1.9361947	1630.2816
1.9363521	1630.7096
1.9365096	1628.4277
1.9366671	1624.8043
1.9368246	1619.2875
1.936982	1610.4818
1.9371396	1599.5756
1.9372971	1580.295
1.9374549	1565.5013
