1.7892661	1905.0654
1.7893994	1955.8248
1.7895323	1978.3555
1.7896655	1991.3387
1.7897985	1998.5884
1.7899318	2002.8385
1.7900648	2006.3043
1.790198	2009.6163
1.7903312	2013.3357
1.7904644	2016.6248
1.7905977	2019.9479
1.790731	2023.176
1.7908642	2026.7041
1.7909976	2030.1667
1.7911309	2033.8905
1.7912642	2038.3937
1.7913977	2043.266
1.791531	2048.4893
1.7916645	2053.6995
1.7917979	2059.2998
1.7919314	2062.8518
1.7920648	2065.9109
1.7921984	2068.29
1.7923318	2072.8384
1.7924654	2078.8359
1.792599	2085.5596
1.7927326	2094.4639
1.7928661	2103.447
1.7929999	2112.3926
1.7931334	2121.0303
1.7932671	2126.9097
1.7934008	2131.8311
1.7935345	2135.7671
1.7936683	2138.9221
1.793802	2141.8296
1.7939358	2142.2439
1.7940696	2142.2065
1.7942034	2142.5608
1.7943373	2147.095
1.794471	2153.2566
1.794605	2160.531
1.794739	2168.3652
1.7948728	2176.2195
1.7950069	2183.113
1.7951409	2190.0012
1.7952749	2195.6885
1.7954088	2200.9231
1.7955428	2205.8652
1.7956769	2210.7322
1.7958111	2215.4995
1.795945	2220.2383
1.7960793	2225.0173
1.7962134	2230.1611
1.7963476	2235.6516
1.7964818	2241.0542
1.796616	2246.5828
1.7967502	2252.1072
1.7968845	2257.6765
1.7970188	2263.4973
1.7971531	2269.5825
1.7972875	2275.9443
1.7974217	2282.8379
1.797556	2289.8723
1.7976905	2296.99
1.7978249	2304.0557
1.7979593	2310.9802
1.7980938	2317.3916
1.7982283	2323.8374
1.7983627	2330.5667
1.7984973	2337.303
1.7986318	2344.4958
1.7987664	2351.8262
1.798901	2359.6497
1.7990355	2366.6755
1.7991703	2373.2224
1.7993048	2378.9087
1.7994395	2385.0686
1.7995743	2391.3635
1.799709	2398.2888
1.7998437	2404.4456
1.7999784	2409.7039
1.8001132	2414.396
1.8002479	2418.3579
1.8003827	2422.5291
1.8005176	2426.7793
1.8006524	2431.0237
1.8007873	2435.4866
1.8009224	2440.1045
1.8010572	2444.8916
1.8011922	2449.7158
1.8013271	2454.2192
1.8014621	2458.6768
1.8015971	2462.5166
1.8017323	2466.3267
1.8018672	2470.5251
1.8020023	2474.6775
1.8021374	2478.9534
1.8022726	2482.9128
1.8024077	2486.6848
1.8025429	2489.5405
1.8026781	2489.7571
1.8028132	2489.9395
1.8029486	2493.8035
1.8030838	2499.5569
1.803219	2505.5457
1.8033544	2512.3462
1.8034897	2519.2478
1.803625	2525.8103
1.8037604	2531.5571
1.8038958	2537.625
1.8040311	2543.9141
1.8041667	2556.0215
1.8043021	2562.8306
1.8044375	2566.323
1.8045731	2566.6919
1.8047086	2563.7327
1.8048441	2560.4976
1.8049797	2558.2664
1.8051152	2558.3381
1.8052509	2559.2883
1.8053864	2561.3582
1.8055222	2564.3123
1.8056577	2570.4648
1.8057935	2575.5867
1.8059292	2574.0972
1.8060651	2572.0652
1.8062007	2571.8574
1.8063365	2573.6431
1.8064723	2576.6821
1.8066082	2580.8777
1.806744	2586.1072
1.8068799	2592.1707
1.8070159	2598.8271
1.8071517	2606.1047
1.8072877	2613.4153
1.8074236	2620.8533
1.8075596	2627.8706
1.8076956	2634.4648
1.8078315	2639.9053
1.8079677	2644.5115
1.8081037	2648.5518
1.8082398	2652.1648
1.808376	2655.6213
1.808512	2658.8044
1.8086482	2661.8914
1.8087845	2665.1851
1.8089206	2667.9658
1.8090568	2670.7998
1.8091931	2673.6333
1.8093294	2676.6636
1.8094655	2680.0259
1.8096019	2683.2068
1.8097383	2688.3623
1.8098747	2695.4009
1.8100109	2702.8625
1.8101474	2708.1641
1.8102838	2711.8325
1.8104203	2716.1714
1.8105568	2720.9529
1.8106933	2725.9375
1.8108296	2731.6477
1.8109663	2737.8
1.8111029	2744.2673
1.8112394	2751.187
1.8113761	2758.4038
1.8115127	2766.0193
1.8116493	2773.896
1.8117861	2782.0806
1.8119226	2790.5415
1.8120593	2799.0972
1.812196	2807.8
1.8123327	2816.7195
1.8124696	2825.6621
1.8126063	2834.925
1.8127432	2842.0239
1.81288	2845.6953
1.8130169	2848.9023
1.8131539	2851.9387
1.8132907	2856.4978
1.8134277	2861.0586
1.8135647	2865.5188
1.8137016	2870.7129
1.8138386	2876.9521
1.8139756	2884.4421
1.8141127	2893.0786
1.8142496	2903.9663
1.8143868	2915.7961
1.8145239	2930.9207
1.8146611	2947.0923
1.8147982	2962.5803
1.8149354	2974.0786
1.8150725	2984.5073
1.8152097	2994.0295
1.815347	3003.0798
1.8154844	3011.5371
1.8156216	3020.1729
1.8157589	3028.7612
1.8158963	3037.6169
1.8160336	3045.3057
1.8161711	3055.8716
1.8163084	3067.0557
1.8164458	3078.7554
1.8165833	3090.8606
1.8167206	3103.0876
1.8168583	3115.2031
1.8169957	3126.5332
1.8171332	3138.1318
1.8172709	3149.5623
1.8174084	3160.8933
1.817546	3171.8855
1.8176836	3182.8103
1.8178213	3193.7151
1.817959	3204.5095
1.8180965	3214.9641
1.8182343	3225.3247
1.818372	3235.3616
1.8185099	3245.311
1.8186476	3255.1777
1.8187854	3264.8689
1.8189234	3274.2466
1.819061	3283.6487
1.8191991	3292.9563
1.8193369	3302.3005
1.8194747	3312.3977
1.8196127	3323.0232
1.8197507	3334.335
1.8198887	3348.4946
1.8200266	3363.3162
1.8201647	3377.7229
1.8203027	3391.2791
1.8204409	3404.7949
1.8205788	3417.3896
1.8207171	3429.262
1.8208551	3440.1208
1.8209933	3449.7422
1.8211315	3458.3335
1.8212698	3465.3945
1.821408	3470.7776
1.8215462	3474.2273
1.8216845	3476.9663
1.8218228	3483.1091
1.8219612	3492.9883
1.8220996	3505.1204
1.8222377	3513.6987
1.8223763	3522.2134
1.8225145	3531.262
1.8226531	3542.6926
1.8227916	3552.3923
1.8229299	3561.282
1.8230685	3569.0676
1.823207	3576.9321
1.8233457	3584.3337
1.8234841	3591.4893
1.8236227	3598.1934
1.8237613	3603.8423
1.8238999	3609.0769
1.8240386	3614.3823
1.8241773	3619.8379
1.824316	3625.9402
1.8244547	3632.8135
1.8245934	3641.1982
1.8247322	3650.0046
1.8248711	3659.165
1.8250099	3668.8184
1.8251486	3680.1521
1.8252875	3691.4548
1.8254265	3702.7363
1.8255653	3712.147
1.8257043	3718.8298
1.8258433	3724.386
1.8259823	3728.2776
1.8261211	3730.9077
1.8262602	3732.6348
1.8263992	3733.677
1.8265383	3734.366
1.8266774	3735.1914
1.8268166	3735.6919
1.8269557	3736.959
1.8270948	3738.575
1.827234	3740.5891
1.8273733	3743.1787
1.8275125	3746.446
1.8276517	3750.3149
1.827791	3754.7686
1.8279303	3759.333
1.8280696	3763.5129
1.8282089	3767.8157
1.8283483	3772.4041
1.8284876	3779.1316
1.8286271	3788.7837
1.8287665	3797.3357
1.8289059	3805.196
1.8290454	3812.4478
1.8291849	3820.4688
1.8293244	3829.2798
1.8294641	3839.0369
1.8296036	3849.4114
1.8297431	3860.3362
1.8298827	3871.6304
1.8300223	3883.4265
1.830162	3897.2341
1.8303016	3911.6941
1.8304415	3925.8562
1.8305812	3939.9985
1.8307209	3952.9006
1.8308606	3963.061
1.8310004	3973.8271
1.8311404	3984.2053
1.8312802	3994.1531
1.8314199	4003.438
1.8315599	4012.1875
1.8316998	4019.6108
1.8318398	4024.9158
1.8319796	4030.2432
1.8321196	4034.6111
1.8322598	4038.7664
1.8323997	4042.8186
1.8325397	4046.657
1.8326799	4051.3474
1.8328199	4057.4211
1.83296	4066.093
1.8331002	4076.7878
1.8332404	4091.1328
1.8333805	4106.8608
1.8335208	4124.2905
1.833661	4143.1968
1.8338013	4163.7104
1.8339415	4184.4521
1.8340818	4204.6523
1.8342222	4224.4336
1.8343624	4240.501
1.8345029	4252.7534
1.8346432	4254.646
1.8347837	4268.8999
1.8349241	4283.2144
1.8350646	4297.1279
1.835205	4310.3462
1.8353456	4322.4741
1.8354861	4334.457
1.8356267	4346.3848
1.8357671	4358.4736
1.8359078	4371.1069
1.8360484	4383.9946
1.8361892	4397.3921
1.8363297	4410.9907
1.8364705	4424.5635
1.836611	4438.1709
1.8367518	4451.6421
1.8368927	4465.5239
1.8370334	4479.5239
1.8371743	4494.1226
1.837315	4509.6152
1.8374559	4524.7578
1.8375968	4539.4512
1.8377377	4554.1123
1.8378786	4567.9922
1.8380196	4582.5762
1.8381605	4597.2759
1.8383015	4613.2339
1.8384426	4629.1504
1.8385835	4645.4648
1.8387246	4663.4141
1.8388658	4682.3789
1.8390069	4676.6919
1.8391479	4660.6914
1.8392891	4666.9468
1.8394303	4677.9932
1.8395716	4695.8687
1.8397126	4718.2026
1.8398539	4742.5254
1.8399953	4771.6685
1.8401365	4789.7241
1.8402779	4803.999
1.8404191	4805.708
1.8405604	4811.894
1.8407019	4819.9321
1.8408433	4829.5103
1.8409848	4839.9961
1.8411263	4851.0049
1.8412677	4862.1006
1.8414091	4872
1.8415507	4881.6807
1.8416922	4891.4507
1.8418338	4901.7202
1.8419755	4913.1978
1.8421171	4924.8745
1.8422587	4942.3887
1.8424004	4960.7759
1.8425421	4979.127
1.8426838	4996.8838
1.8428255	5011.3638
1.8429673	5025.3921
1.843109	5038.0845
1.8432509	5049.8047
1.8433927	5059.3901
1.8435346	5068.2012
1.8436764	5076.0249
1.8438183	5083.0986
1.8439602	5089.7915
1.8441021	5096.3594
1.8442441	5102.606
1.8443861	5108.644
1.8445281	5114.6167
1.8446702	5121.0825
1.8448122	5125.5938
1.8449544	5130.0293
1.8450965	5134.2349
1.8452386	5139.8975
1.8453808	5148.8872
1.8455229	5158.0151
1.8456651	5167.6528
1.8458073	5177.6465
1.8459496	5187.6821
1.8460919	5197.7725
1.8462342	5207.1396
1.8463764	5216.7051
1.8465188	5226.5571
1.8466612	5236.9121
1.8468035	5248.1489
1.846946	5259.7803
1.8470883	5271.874
1.8472309	5284.0137
1.8473734	5295.1401
1.8475158	5303.4058
1.8476583	5309.2607
1.847801	5315.1128
1.8479435	5320.7969
1.8480861	5328.0908
1.8482288	5335.064
1.8483714	5341.8472
1.8485141	5346.4507
1.8486569	5350.7983
1.8487995	5355.644
1.8489422	5360.6748
1.8490851	5366.1182
1.8492278	5374.1602
1.8493705	5383.7783
1.8495134	5394.9087
1.8496562	5407.0508
1.8497993	5419.6421
1.8499421	5432.3594
1.8500849	5445.5283
1.850228	5457.8501
1.8503709	5470.7944
1.8505139	5483.4727
1.8506569	5495.4209
1.8508	5506.7153
1.8509431	5516.5518
1.8510863	5525.6201
1.8512293	5533.7715
1.8513725	5541.9478
1.8515155	5550.0645
1.8516588	5558.585
1.851802	5567.5034
1.8519453	5576.166
1.8520885	5584.9409
1.8522317	5593.749
1.8523751	5602.4092
1.8525184	5611.0737
1.8526618	5619.9453
1.8528051	5629.2778
1.8529485	5639.0913
1.8530921	5649.4927
1.8532354	5659.6733
1.853379	5669.3281
1.8535223	5678.7373
1.8536659	5686.8682
1.8538095	5694.1323
1.853953	5700.0024
1.8540967	5706.2729
1.8542403	5712.0742
1.8543839	5717.7598
1.8545276	5722.7295
1.8546712	5724.7744
1.854815	5725.585
1.8549587	5728.0557
1.8551024	5731.374
1.8552463	5737.6504
1.8553901	5746.4678
1.8555338	5758.5762
1.8556777	5771.9277
1.8558216	5785.6367
1.8559656	5799.3677
1.8561095	5811.2637
1.8562534	5822.1353
1.8563974	5831.7949
1.8565414	5839.6333
1.8566854	5846.2998
1.8568295	5852.2021
1.8569735	5857.1167
1.8571175	5860.5952
1.8572617	5863.6382
1.8574058	5865.2808
1.85755	5866.5508
1.8576943	5867.7681
1.8578384	5869.3701
1.8579826	5873.2607
1.858127	5880.019
1.8582712	5888.2686
1.8584156	5894.9409
1.8585597	5901.7373
1.8587041	5908.1011
1.8588485	5915.1387
1.8589929	5923.2905
1.8591373	5933.4224
1.8592818	5945.019
1.8594263	5958.2578
1.8595707	5972.0146
1.8597152	5985.583
1.8598598	5994.9111
1.8600044	6000.9561
1.8601489	6004.291
1.8602937	6006.1157
1.8604383	6009.124
1.8605831	6013.8159
1.8607277	6019.5078
1.8608724	6024.6865
1.8610171	6029.4722
1.8611618	6034.3477
1.8613067	6037.5884
1.8614514	6040.084
1.8615962	6041.6104
1.8617412	6042.7192
1.8618861	6043.0625
1.862031	6043.8276
1.8621758	6045.0654
1.8623208	6047.3979
1.8624657	6050.1748
1.8626109	6053.2705
1.8627559	6056.7837
1.8629009	6061.4707
1.8630459	6068.1768
1.863191	6075.626
1.8633362	6083.9849
1.8634814	6091.9761
1.8636265	6099.3203
1.8637717	6103.8276
1.863917	6108.8599
1.8640622	6113.3232
1.8642074	6118.0742
1.8643528	6122.9492
1.864498	6128.231
1.8646433	6134.4717
1.8647887	6140.9292
1.8649342	6148.1279
1.8650795	6155.5195
1.8652248	6162.8833
1.8653705	6170.0562
1.8655158	6176.5767
1.8656615	6182.5439
1.8658069	6187.1748
1.8659525	6191.1221
1.8660982	6194.604
1.8662437	6197.9448
1.8663894	6201.3237
1.8665349	6205.0957
1.8666806	6209.2871
1.8668264	6213.7104
1.8669721	6218.3057
1.8671179	6222.7129
1.8672636	6226.7866
1.8674095	6230.7813
1.8675551	6234.7212
1.8677012	6237.9883
1.867847	6242.2432
1.8679929	6246.8179
1.8681387	6251.9663
1.8682847	6257.7856
1.8684306	6262.5679
1.8685766	6267.311
1.8687227	6271.6846
1.8688687	6276.0288
1.8690147	6280.5815
1.8691609	6288.5176
1.869307	6299.1226
1.8694531	6307.1406
1.8695993	6312.0225
1.8697454	6315.5161
1.8698916	6317.8149
1.870038	6318.686
1.8701842	6318.9688
1.8703305	6318.5796
1.8704768	6317.7773
1.8706231	6318.2275
1.8707695	6318.0762
1.8709159	6318.4785
1.8710622	6319.7036
1.8712087	6321.2451
1.8713552	6326.9468
1.8715016	6334.8491
1.8716481	6341.6333
1.8717947	6346.3887
1.8719413	6350.6553
1.8720877	6353.8765
1.8722343	6356.3335
1.8723811	6356.9492
1.8725277	6355.7925
1.8726742	6352.5132
1.872821	6348.2744
1.8729677	6343.7261
1.8731146	6338.9419
1.8732613	6335.6108
1.873408	6334.2231
1.8735548	6334.2036
1.8737017	6335.9546
1.8738487	6337.3184
1.8739955	6339.1895
1.8741425	6341.2998
1.8742895	6343.8423
1.8744363	6349.9531
1.8745832	6354.374
1.8747303	6357.0615
1.8748773	6357.3105
1.8750244	6356.374
1.8751715	6354.043
1.8753186	6349.6372
1.8754659	6344.832
1.875613	6341.3081
1.8757602	6337.1582
1.8759074	6325.2822
1.8760546	6310.7715
1.876202	6295.7744
1.8763492	6280.1377
1.8764966	6266.5928
1.8766439	6254.6943
1.8767912	6243.8491
1.8769386	6233.2373
1.877086	6222.6016
1.8772335	6212.1943
1.8773808	6201.4404
1.8775284	6189.3047
1.8776759	6179.0933
1.8778234	6169.0508
1.8779709	6159.4805
1.8781185	6150.1479
1.8782661	6140.979
1.8784137	6131.8877
1.8785614	6122.5283
1.8787092	6113.083
1.8788569	6102.9429
1.8790046	6092.8877
1.8791523	6082.8145
1.8793	6072.6904
1.8794478	6062.7974
1.8795956	6053.8237
1.8797436	6045.3105
1.8798915	6035.1177
1.8800393	6022.2861
1.8801873	6002.9873
1.8803351	5981.1992
1.8804833	5959.3203
1.8806312	5937.9819
1.8807791	5919.6494
1.8809272	5903.2656
1.8810754	5889.1143
1.8812234	5876.6313
1.8813715	5865.9658
1.8815197	5856.4507
1.881668	5847.8125
1.8818161	5840.1265
1.8819643	5832.7354
1.8821126	5825.459
1.8822609	5817.687
1.8824091	5810.8403
1.8825575	5803.478
1.8827058	5795.4414
1.8828541	5783.5054
1.8830026	5766.2471
1.8831511	5746.9009
1.8832994	5726.6299
1.883448	5705.4897
1.8835964	5685.4976
1.8837451	5666.1729
1.8838935	5647.5737
1.884042	5630.541
1.8841907	5615.312
1.8843392	5602
1.884488	5591.8755
1.8846366	5584.6919
1.8847854	5577.479
1.8849341	5569.1836
1.8850828	5557.832
1.8852315	5545.7969
1.8853804	5533.5376
1.8855292	5521.4302
1.8856781	5511.2285
1.8858268	5501.1372
1.8859758	5490.9712
1.8861247	5480.2114
1.8862737	5468.5229
1.8864226	5453.7266
1.8865716	5435.8359
1.8867205	5416.8267
1.8868697	5397.8213
1.8870188	5378.3779
1.8871678	5363.3525
1.8873171	5344.7192
1.8874661	5326.3628
1.8876153	5308.5552
1.8877646	5292.3589
1.8879137	5276.9688
1.888063	5263.4707
1.8882123	5250.6636
1.8883615	5241.4209
1.8885108	5233.6113
1.8886603	5228.6187
1.8888096	5224.436
1.8889589	5220.2529
1.8891084	5215.6519
1.8892578	5208.748
1.8894073	5196.7578
1.8895569	5182.6548
1.8897063	5168.6191
1.8898559	5154.0488
1.8900055	5139.1851
1.8901551	5125.6138
1.8903046	5111.7432
1.8904543	5097.8843
1.890604	5083.5615
1.8907537	5069.5098
1.8909035	5055.6035
1.8910531	5041.1895
1.8912029	5025.9238
1.8913528	5011.0054
1.8915026	4995.3506
1.8916525	4980.3394
1.8918023	4966.6509
1.891952	4953.1494
1.892102	4940.561
1.892252	4928.2627
1.8924021	4919.0645
1.892552	4907.998
1.8927021	4895.8306
1.8928522	4883.4365
1.8930023	4871.0127
1.8931521	4857.9229
1.8933023	4844.4536
1.8934525	4829.853
1.8936026	4814.3921
1.8937529	4797.5005
1.8939031	4779.6221
1.8940533	4761.5381
1.8942037	4743.9346
1.894354	4726.4341
1.8945043	4714.4238
1.8946546	4705.2642
1.8948051	4696.4526
1.8949554	4686.085
1.8951058	4671.9624
1.8952563	4657.7417
1.8954067	4642.1523
1.8955573	4627.0918
1.8957077	4613.002
1.8958583	4598.9233
1.8960088	4585.6001
1.8961596	4572.3799
1.8963103	4558.8154
1.8964609	4544.2188
1.8966116	4527.02
1.8967623	4499.0322
1.8969129	4478.4248
1.8970637	4462.4712
1.8972145	4452.2334
1.8973652	4444.6914
1.8975163	4438.498
1.8976671	4432.7642
1.897818	4426.1147
1.8979688	4418.1973
1.8981197	4409.1387
1.8982706	4398.7808
1.8984218	4387.0479
1.8985728	4374.2803
1.8987237	4359.2612
1.8988748	4342.5903
1.8990258	4324.6719
1.8991771	4306.1416
1.8993282	4287.4297
1.8994793	4268.7378
1.8996304	4250.916
1.8997818	4233.1113
1.899933	4215.2402
1.9000841	4197.2705
1.9002357	4179.2007
1.9003869	4161.1816
1.9005382	4143.0869
1.9006896	4125.2378
1.900841	4107.4648
1.9009924	4089.8596
1.9011439	4072.4246
1.9012953	4055.1753
1.9014467	4038.1062
1.9015983	4021.4912
1.9017498	4005.3611
1.9019014	3990.0408
1.9020531	3975.2705
1.9022046	3961.7029
1.9023563	3949.2529
1.902508	3937.1648
1.9026597	3925.239
1.9028114	3913.1775
1.9029632	3900.49
1.903115	3888.3533
1.9032668	3875.9905
1.9034187	3862.9478
1.9035704	3849.0898
1.9037223	3833.6951
1.9038743	3816.3809
1.904026	3795.7195
1.9041781	3773.4734
1.90433	3750.3018
1.9044821	3726.9648
1.904634	3703.8206
1.9047862	3682.3516
1.9049383	3661.8823
1.9050903	3642.4214
1.9052426	3623.4094
1.9053947	3604.511
1.9055469	3585.9524
1.905699	3567.3247
1.9058514	3548.9639
1.9060037	3531.2122
1.9061558	3514.1501
1.9063083	3497.5142
1.9064605	3480.9563
1.9066129	3464.1794
1.9067653	3446.7363
1.9069177	3428.6519
1.9070702	3410.0093
1.9072227	3391.0164
1.9073751	3372.2964
1.9075277	3354.0149
1.9076803	3336.3772
1.9078327	3318.9468
1.9079854	3304.0957
1.908138	3290.5234
1.9082906	3277.9648
1.9084433	3265.7529
1.9085962	3253.1079
1.9087487	3238.7573
1.9089015	3224.3499
1.9090543	3210.2048
1.9092072	3195.8521
1.9093599	3181.8005
1.9095128	3168.0554
1.9096657	3156.0112
1.9098186	3144.2551
1.9099716	3132.4297
1.9101244	3120.031
1.9102775	3107.0469
1.9104306	3093.1069
1.9105836	3075.728
1.9107367	3057.436
1.9108897	3039.126
1.9110428	3020.9133
1.911196	3003.0132
1.9113492	2985.9807
1.9115024	2968.9487
1.9116555	2952.0361
1.9118088	2935.1335
1.9119622	2918.1431
1.9121155	2900.8108
1.9122686	2883.3174
1.9124221	2865.3291
1.9125754	2847.0493
1.9127288	2828.5342
1.9128822	2810.1252
1.9130358	2792.5586
1.9131892	2775.3857
1.9133427	2759.6506
1.9134963	2744.5793
1.9136498	2729.9861
1.9138035	2715.9158
1.913957	2702.4421
1.9141107	2689.5938
1.9142643	2677.3818
1.914418	2665.7261
1.9145718	2654.8743
1.9147254	2646.3203
1.9148792	2638.6108
1.915033	2630.2507
1.9151868	2620.5701
1.9153407	2607.6331
1.9154946	2593.7417
1.9156483	2578.8821
1.9158024	2563.241
1.9159564	2547.3616
1.9161104	2531.1477
1.9162644	2515.2659
1.9164183	2499.6865
1.9165725	2484.5356
1.9167265	2469.9988
1.9168805	2456.1719
1.9170346	2442.9048
1.917189	2430.0647
1.9173431	2417.8447
1.9174973	2406.1602
1.9176515	2395.7634
1.9178058	2385.7893
1.91796	2376.2178
1.9181144	2366.6963
1.9182688	2356.8193
1.9184231	2346.5095
1.9185774	2335.6555
1.918732	2324.1726
1.9188864	2312.343
1.9190408	2300.2388
1.9191953	2287.929
1.9193499	2275.665
1.9195044	2263.4795
1.919659	2251.3235
1.9198135	2239.5867
1.9199682	2227.1514
1.9201229	2214.3992
1.9202776	2201.5249
1.9204323	2188.8948
1.9205871	2176.4636
1.9207418	2165.1968
1.9208966	2155.5193
1.9210514	2148.0322
1.9212062	2141.4075
1.9213612	2135.4514
1.9215161	2130.2083
1.9216709	2125.384
1.9218259	2120.6306
1.9219809	2115.6245
1.9221359	2110.147
1.9222909	2104.0791
1.9224459	2097.4602
1.9226011	2089.9316
1.9227561	2082.0867
1.9229113	2073.9041
1.9230664	2064.6072
1.9232217	2055.1316
1.9233768	2045.2886
1.923532	2036.5145
1.9236873	2029.1094
1.9238425	2022.7029
1.923998	2017.1327
1.9241532	2012.1403
1.9243087	2006.5149
1.924464	2001.0021
1.9246194	1994.9076
1.9247749	1988.6743
1.9249303	1982.3275
1.9250858	1975.4741
1.9252414	1967.8866
1.925397	1959.8297
1.9255525	1951.0975
1.9257082	1940.6062
1.9258637	1929.1167
1.9260194	1917.0342
1.9261751	1904.6345
1.9263308	1892.6992
1.9264866	1880.4655
1.9266423	1870.4412
1.9267982	1862.2377
1.926954	1854.6761
1.9271098	1847.3561
1.9272658	1840.6317
1.9274216	1833.6985
1.9275775	1826.2886
1.9277335	1818.4371
1.9278893	1810.1229
1.9280454	1802.2445
1.9282016	1794.7266
1.9283576	1788.1348
1.9285136	1782.5476
1.9286698	1777.9989
1.928826	1774.3806
1.928982	1771.2272
1.9291383	1768.0785
1.9292945	1764.4823
1.9294508	1759.9834
1.9296069	1754.0515
1.9297633	1746.6827
1.9299196	1737.7826
1.930076	1727.7185
1.9302323	1716.9445
1.9303887	1705.708
1.9305452	1694.5918
1.9307017	1683.5653
1.9308583	1673.1332
1.9310148	1663.4075
1.9311712	1654.4426
1.9313277	1646.4745
1.9314843	1639.2068
1.931641	1633.5536
1.9317977	1628.4333
1.9319544	1623.7659
1.9321109	1618.895
1.9322677	1613.3849
1.9324244	1607.303
1.9325813	1600.387
1.9327381	1592.6583
1.9328949	1584.2208
1.9330518	1575.2555
1.9332087	1565.9886
1.9333657	1556.3279
1.9335226	1545.791
1.9336796	1535.1324
1.9338366	1524.3418
1.9339936	1513.827
1.9341507	1503.8802
1.9343076	1494.9196
1.9344647	1487.0852
1.9346218	1480.1606
1.9347789	1474.14
1.9349362	1468.7957
1.9350934	1463.7751
1.9352506	1458.9354
1.935408	1454.0879
1.9355654	1449.105
1.9357226	1443.832
1.9358799	1438.1758
1.9360373	1431.8069
1.9361947	1424.8099
1.9363521	1417.2456
1.9365096	1409.104
1.9366671	1400.3311
1.9368246	1390.8712
1.936982	1380.9935
1.9371396	1370.6917
1.9372971	1360.0386
1.9374549	1350.0326
