650.26837	59.616993
649.78607	60.405067
649.30573	60.48996
648.82336	60.552639
648.34302	60.578758
647.86261	60.59827
647.38013	60.599293
646.89966	60.581009
646.41718	60.591785
645.93665	60.59433
645.4541	60.605213
644.97357	60.629681
644.49097	60.637295
644.01038	60.671993
643.52771	60.673992
643.04706	60.730682
642.56433	60.728523
642.08362	60.748833
641.60089	60.722977
641.12012	60.724354
640.63733	60.694881
640.15649	60.692532
639.67365	60.668922
639.19275	60.661259
638.70984	60.638786
638.22693	60.619648
637.74597	60.621452
637.263	60.620914
636.78204	60.658463
636.29901	60.688194
635.81793	60.762119
635.33484	60.831024
634.85175	60.940773
634.37061	61.047535
633.88745	61.190754
633.40631	61.315193
632.9231	60.478897
632.43982	60.840973
631.95856	61.385399
631.47528	62.435749
630.992	62.510967
630.51062	62.096016
630.02728	61.670322
629.54388	61.171913
629.0625	60.776371
628.57904	60.515007
628.09558	60.416237
627.61407	60.758446
627.13055	61.064457
626.64703	61.293137
626.16345	61.313965
625.68188	61.470062
625.19824	61.654423
624.7146	61.856415
624.23291	62.123901
623.74921	62.416515
623.2655	63.071781
622.78174	63.432026
622.29999	63.587799
621.81616	63.612846
621.33234	63.524563
620.84851	63.349697
620.36664	63.154812
619.88275	62.927181
619.3988	62.49641
618.91486	62.036293
618.43085	61.69487
617.94885	61.602535
617.46484	61.524696
616.98077	61.387047
616.4967	61.192471
616.01257	60.968479
615.52844	60.825718
615.04626	60.723301
614.56207	60.830822
614.07788	60.959976
613.59363	61.10603
613.10938	61.29369
612.62506	61.850071
612.14075	62.367565
611.65637	62.732143
611.17407	63.005093
610.68964	63.212837
610.20526	63.33873
609.72076	63.335072
609.23633	63.236431
608.75183	63.045158
608.26727	62.653706
607.78271	61.946575
607.29816	61.204109
606.81354	60.262268
606.32892	58.603004
605.84424	58.475651
605.35956	58.574955
604.87488	59.049614
604.39014	59.960903
603.9054	60.655113
603.42059	61.28191
602.93579	61.826321
602.45099	62.227421
601.96613	62.348824
601.4812	62.293488
600.99628	62.526222
600.51135	62.625298
600.02637	62.562912
599.54138	62.316509
599.0564	62.011871
598.57135	61.659115
598.0863	61.32534
597.6012	60.956696
597.11609	60.654583
596.63092	60.464142
596.14575	60.400761
595.66052	60.48843
595.17535	60.719501
594.69006	61.316299
594.20477	62.053471
593.71747	62.788368
593.23218	63.329544
592.74683	63.812057
592.26141	64.111038
591.776	64.184784
591.29059	64.059029
590.80511	63.558922
590.31964	62.654583
589.83209	61.512421
589.34656	60.302357
588.86102	59.691959
588.37543	60.13525
587.88983	61.067684
587.40417	61.623077
586.9165	62.076385
586.43079	62.297859
585.94507	62.43111
585.45935	62.471607
584.97357	62.340244
584.48578	62.071438
583.99994	61.662998
583.5141	61.063187
583.0282	60.27354
582.54028	59.237625
582.05438	57.768551
581.56842	55.902077
581.08246	55.157509
580.59442	54.06995
580.1084	53.396992
579.62238	53.284058
579.13629	53.569
578.64813	54.22823
578.16199	55.460423
577.67584	56.815033
577.18762	57.521973
576.70142	58.05809
576.21521	58.443081
575.72693	58.688385
575.2406	58.935478
574.75433	59.042641
574.26593	57.84193
573.7796	57.552597
573.29321	57.168751
572.80475	56.930759
572.3183	56.794682
571.83185	56.784832
571.34332	57.414761
570.85681	58.121933
570.36823	58.822659
569.88165	59.5732
569.39502	60.117172
568.90637	60.620296
568.41974	61.076679
567.93103	61.141365
567.44434	61.084118
566.95758	60.957657
566.46881	60.797531
565.98206	60.597065
565.49323	60.368149
565.00635	60.121441
564.51746	59.855373
564.03058	59.588421
563.54169	59.330425
563.05475	59.075161
562.56775	59.009197
562.07874	58.980888
561.59174	58.87991
561.10266	58.781631
560.6156	58.707153
560.12646	58.668461
559.63934	58.615696
559.15015	58.593491
558.66095	58.582417
558.17377	58.604729
557.68451	58.600506
557.19727	58.550098
556.70795	58.767094
556.22064	58.993683
555.73126	59.271122
555.24396	59.589588
554.75452	59.951748
554.26508	60.323116
553.77765	60.763012
553.28815	61.298481
552.80066	61.839954
552.31116	62.249939
551.82159	62.634102
551.33398	62.912807
550.84436	62.956398
550.35675	62.967396
549.86707	63.073673
549.37738	63.098831
548.88971	63.135048
548.39996	63.221737
547.91016	63.346684
547.42236	63.489704
546.93256	63.824963
546.44269	64.137329
545.95483	64.815971
545.46497	65.494759
544.97498	66.055519
544.48706	66.677536
543.99707	67.229546
543.50708	67.7229
543.01904	68.191666
542.52899	68.359467
542.03888	68.515274
541.54877	68.524117
541.06067	68.42086
540.5705	68.241226
540.08026	68.007599
539.59009	67.793312
539.10187	67.894958
538.61157	68.520859
538.12128	69.307053
537.63092	70.175499
537.14056	70.844719
536.65222	71.768456
536.1618	72.668266
535.67139	73.457909
535.18091	73.926476
534.69043	74.409286
534.20197	74.924599
533.71143	75.615311
533.22083	76.653488
532.73022	78.331917
532.23962	80.620583
531.75104	82.200806
531.26031	84.306198
530.76965	86.599976
530.27893	89.469513
529.78815	92.687386
529.29736	97.444054
528.80658	102.33211
528.31573	108.32326
527.8269	115.56212
527.33606	124.21529
526.84515	134.51154
526.35419	148.45184
525.86322	162.0289
525.37225	180.27255
524.88123	209.34467
524.3902	244.51656
523.89911	323.28857
523.40802	401.8873
522.91687	548.40955
522.42572	731.44763
521.93457	963.93573
521.44336	1222.3572
520.95215	1405
520.46088	1348
519.9696	1125
519.47833	833
518.987	642
518.49561	465.27811
518.00421	373.03214
517.51282	286.3107
517.02136	215.34392
516.52991	181.30115
516.03839	171.54185
515.54688	160.54533
515.05536	144.67171
514.56378	130.25546
514.0722	119.88586
513.58057	110.74005
513.08893	105.16618
512.59723	99.681969
512.10553	95.306541
511.6138	91.550003
511.12204	88.444458
510.63028	85.951447
510.13846	83.736748
509.64459	79.825294
509.15271	77.682793
508.66083	75.863716
508.16891	74.382919
507.67697	73.030304
507.185	71.928055
506.69302	70.426674
506.20099	69.932518
505.70691	69.524414
505.21484	69.202049
504.72272	68.932381
504.23059	68.7332
503.73846	68.520554
503.24628	68.349968
502.75201	68.172295
502.2598	67.990517
501.76752	67.783371
501.27524	67.58429
500.78293	67.345284
500.28854	66.937836
499.79617	66.666718
499.3038	66.331192
498.81137	66.134544
498.31689	65.763641
497.82443	65.412354
497.33191	65.053543
496.83939	64.708977
496.34479	64.356812
495.85223	64.014679
495.35962	63.685925
494.86697	63.363579
494.37228	63.054031
493.87961	62.786934
493.3869	62.531391
492.89212	62.303295
492.39935	62.107334
491.90656	61.921749
491.41168	61.773468
490.91885	61.63308
490.42599	61.535564
489.93103	61.442356
489.43811	61.494221
488.94516	61.577042
488.45013	61.684193
487.95715	61.739021
487.46411	61.790348
486.96902	61.810539
486.47592	61.946259
485.98282	62.13113
485.48764	62.303654
484.99448	62.498825
484.49924	62.707561
484.00604	62.872398
483.51279	63.057243
483.01746	63.247116
482.52417	63.312832
482.02881	63.357624
481.53546	63.122482
481.04004	62.400314
480.54663	61.924046
480.05319	61.370567
479.55771	60.822266
479.06421	60.307804
478.56866	59.812088
478.07513	59.324352
477.57953	58.885498
477.08594	58.59063
476.59027	58.384605
476.09662	58.340107
475.60092	58.369598
475.10721	58.388626
474.61145	58.704163
474.11771	59.114738
473.62189	59.56115
473.12808	60.019146
472.6322	60.525791
472.13834	61.052288
471.6424	61.552135
471.14645	62.060894
470.65253	62.596478
470.15649	62.793831
469.66251	63.178413
469.16644	63.201164
468.67239	63.179379
468.1763	63.084435
467.68015	62.942101
467.18604	62.730148
466.68982	62.603821
466.19565	62.459938
465.6994	62.340874
465.20313	62.027843
464.70886	62.177773
464.21252	62.455986
463.71616	62.80389
463.22183	63.141895
462.7254	63.456451
462.23102	63.840885
461.73456	64.174072
461.23807	64.523079
460.74359	64.846558
460.24704	65.174515
459.75046	65.473175
459.25388	65.756256
458.75931	66.01696
458.26263	66.109016
457.76596	66.226051
457.2713	66.343346
456.77457	66.347855
456.2778	66.367973
455.78305	66.368637
455.28625	66.320908
454.7894	66.37899
454.29254	66.22506
453.7977	66.06839
453.30075	65.878716
452.8038	65.65683
452.30682	65.444016
451.80984	65.198372
451.31485	64.97773
450.81778	64.673607
450.32071	64.404121
449.82361	64.259995
449.32852	64.13752
448.83133	64.035919
448.33414	63.934437
447.83691	64.246712
447.33969	64.400909
446.84241	64.565201
446.34717	64.733681
445.84982	64.902527
445.35248	65.056892
444.8551	65.139648
444.3577	65.223717
443.86026	65.280647
443.36279	64.93029
442.86734	64.853424
442.36984	64.709793
441.87228	64.615921
441.37473	64.530342
440.87714	64.27137
440.37949	64.406532
439.88184	64.609978
439.38416	64.815773
438.88647	65.071754
438.38873	65.684273
437.89096	66.135605
437.39523	66.44294
436.89743	66.593254
436.3996	66.632538
435.90173	66.309525
435.40384	65.905792
434.90591	65.496498
434.40796	65.059494
433.90997	64.613533
433.41199	64.170105
432.91394	63.72665
432.41589	63.295494
431.91782	62.871639
431.41971	62.533981
430.92157	62.36937
430.4234	62.209198
429.9252	61.909893
429.42697	62.075863
428.92874	62.313122
428.43048	62.625248
427.93216	62.934353
427.43384	63.311226
426.93549	63.729324
426.43506	64.102951
425.93665	64.528831
425.4382	64.909874
424.93973	65.318153
424.44125	65.680847
423.94275	65.723877
423.44418	65.720078
422.94562	65.727036
422.44702	65.702011
421.94839	65.681488
421.44974	65.638626
420.94901	65.584656
420.45032	65.513695
419.95157	65.43866
419.45282	65.388748
418.95401	65.345795
418.4552	65.3694
417.95636	65.40979
417.45544	65.951866
416.95654	66.401566
416.45761	67.002098
415.95868	67.893127
415.45969	68.990204
414.96069	70.038666
414.45959	70.465889
413.96054	70.68174
413.46146	71.041641
412.96234	71.287895
412.46115	71.723701
411.96198	72.352676
411.46277	73.3433
410.96356	74.496513
410.46432	75.963974
409.96298	77.679466
409.46368	79.561089
408.96436	81.248367
408.465	82.906136
407.96353	85.370186
407.46411	88.979095
406.96469	92.740273
406.46317	96.547318
405.96365	103.30786
405.46414	104.28946
404.9646	104.67045
404.46295	102.92917
403.96335	100.16899
403.46375	92.900047
402.96201	87.693283
402.46234	83.12545
401.96262	78.354225
401.46082	75.21151
400.96106	72.297768
400.46127	69.750748
399.95938	67.541443
399.45953	65.741112
398.95758	64.216469
398.4577	62.942467
397.95776	62.640686
397.45575	62.758171
396.95575	62.835617
396.45367	62.948753
395.95364	63.12151
395.45358	63.325577
394.95142	63.47995
394.45132	63.664738
393.9491	63.735878
393.44891	63.858574
392.94873	63.938423
392.44644	64.044495
391.94617	64.120712
391.44382	64.196442
390.94351	63.958248
390.44113	64.120667
389.94077	64.505241
389.43829	65.170975
388.93787	65.759674
388.43536	67.370476
387.93491	68.990891
387.43231	70.897011
386.93179	73.24955
386.42917	76.171883
385.92859	79.404335
385.4259	83.198891
384.92529	84.381958
384.42255	84.565948
383.92188	83.927292
383.41907	82.489037
382.91833	80.3536
382.4155	75.760956
381.91467	73.845673
381.4118	72.607239
380.90887	71.18734
380.40799	69.835823
379.905	68.53331
379.40408	67.298233
378.90103	66.143417
378.39798	65.239258
377.89694	64.413651
377.39383	63.635178
376.89276	62.466549
376.38959	61.654224
375.88638	61.616356
375.38525	61.814934
374.88199	62.180191
374.37872	62.480099
373.87747	62.812092
373.37415	63.164158
372.87076	63.5574
372.36945	64.298798
371.86603	64.99453
371.36258	64.761116
370.86118	64.69976
370.3577	64.344521
369.85416	63.965302
369.35269	63.584763
368.84909	63.181534
368.34549	62.789726
367.84393	62.417103
367.34024	62.05484
366.83655	61.722477
366.33282	61.391617
365.83118	61.092056
365.32739	60.798077
364.82358	60.559303
364.31976	60.335415
363.81796	60.140957
363.31409	59.976234
362.81018	59.819466
362.30624	59.734112
361.80435	59.637699
361.30035	59.596893
360.79633	59.583565
360.29227	59.643917
359.78818	59.677101
359.28616	59.860466
358.78201	60.003151
358.27786	60.249554
357.77368	60.465672
357.26947	60.721329
356.76523	60.965073
356.26303	61.233017
355.75873	61.499496
355.25439	61.758224
354.75003	62.024048
354.24567	62.247021
353.74124	62.475712
353.23682	62.640984
352.73444	62.347675
352.22992	62.160999
351.7254	61.953552
351.22086	61.70232
350.71631	61.389652
350.2117	61.039227
349.70706	60.666283
349.20239	60.22963
348.69772	59.706635
348.19299	59.140659
347.68826	58.513729
347.18558	58.851681
346.68079	59.373203
346.17596	59.950275
345.67111	60.559124
345.16623	61.072647
344.66132	61.468014
344.1564	61.683353
343.65143	61.848251
343.14645	61.858173
342.64142	61.800327
342.13638	61.631126
341.63132	61.378796
341.12622	61.022114
340.62109	60.580009
340.11594	60.007484
339.61075	59.311359
339.10553	58.484268
338.60031	57.640926
338.09503	57.450951
337.58975	57.636795
337.08441	57.935993
336.577	58.429146
336.07162	59.030796
335.56622	59.681519
335.06079	60.357132
334.55533	61.059711
334.04984	61.71376
333.54431	62.32465
333.03879	62.836235
332.5332	63.19125
332.02762	63.330482
331.52197	63.333492
331.01425	63.057529
330.50858	62.405594
330.00287	61.621742
329.49713	61.046139
328.99136	60.71035
328.48557	60.479626
327.97974	60.239899
327.47391	60.001484
326.96594	59.743732
326.46005	59.54903
325.9541	59.483421
325.44815	59.414299
324.94217	59.448463
324.43408	59.642967
323.92804	60.763958
323.42197	61.154675
322.91586	61.340302
322.40973	61.458263
321.90152	61.590405
321.39532	61.757309
320.88913	61.911884
320.38287	62.102528
319.87662	62.278889
319.36826	62.479397
318.86194	62.669815
318.35559	62.849396
317.84921	63.046654
317.34073	63.197376
316.83429	63.412636
316.32782	63.491138
315.81927	63.717751
315.31274	63.989834
314.80621	64.236015
314.29965	64.532562
313.79095	64.816811
313.28433	65.102867
312.77768	65.376648
312.26892	65.650475
311.76221	65.989464
311.25546	66.146614
310.74661	66.30352
310.23984	66.426338
309.733	66.520317
309.22409	66.584099
308.71719	66.638893
308.2103	66.628525
307.70129	66.2715
307.19434	66.177109
306.68524	66.053581
306.17825	65.928123
305.6712	65.841255
305.16205	65.735023
304.65494	65.686806
304.14572	65.728363
303.63858	65.658142
303.13141	65.661438
302.6221	65.632492
302.11487	65.565102
301.6055	65.489273
301.09821	65.391403
300.58881	65.292732
300.08145	65.170036
299.5741	65.044693
299.06461	64.892227
298.55716	64.730515
298.04761	64.533363
297.54013	64.27639
297.03052	64.07029
296.52298	63.859547
296.01331	63.737198
295.50571	63.568768
294.996	63.384403
294.48834	63.152447
293.97858	62.925751
293.47086	62.713715
292.96103	62.420834
292.45328	62.072544
291.94339	62.041542
291.43555	62.01075
290.92563	62.035114
290.41565	62.111038
289.90775	62.436272
289.39771	62.581291
288.88974	62.721233
288.37967	62.830975
287.87164	62.945435
287.36151	63.019974
286.85135	63.083839
286.34323	63.037254
285.83304	63.06274
285.32486	62.947876
284.81458	62.841328
284.30429	62.669823
283.79605	62.494125
283.28568	62.299339
282.77737	62.089546
282.26697	61.865475
281.7565	61.624302
281.24814	61.364365
280.73764	61.080437
280.22711	60.841801
279.71863	60.473854
279.20804	60.258312
278.69742	60.097301
278.18887	59.911507
277.67822	59.810196
277.16751	59.914192
276.65677	59.836315
276.14813	59.748302
275.63733	59.675049
275.12653	59.553661
274.61777	59.378944
274.1069	59.186211
273.59601	58.806526
273.08508	58.155346
272.57623	57.595428
272.06525	56.996983
271.55423	56.513897
271.04321	56.025467
270.53424	55.662102
270.02313	55.366898
269.51202	55.503613
269.00085	55.791401
268.49179	56.293743
267.98059	56.894073
267.46933	57.528309
266.95807	58.190063
266.44678	58.620968
265.93756	59.026062
265.42621	58.826714
264.91486	58.768456
264.40344	58.753811
263.892	58.812309
263.38055	58.799458
262.87115	58.702282
262.35965	58.504974
261.84808	58.10659
261.33652	57.544529
260.82492	57.027306
260.31329	56.595268
259.80164	56.360046
259.29205	56.289543
258.78033	56.399601
258.26859	56.517902
257.75681	56.381157
257.24503	55.952477
256.73318	55.612164
256.22134	55.620167
255.70946	55.652287
255.19754	55.741268
254.68559	55.840004
254.17363	55.979229
253.66164	56.124622
253.1517	56.263477
252.63965	56.416138
252.12758	56.520088
251.61546	56.647694
251.10332	56.72966
250.59116	56.842422
250.07896	56.939648
249.56674	57.038261
249.05449	57.18021
248.54221	57.182312
248.02991	57.11755
247.51756	57.085045
247.0052	56.984928
246.49281	56.87265
245.98039	56.789192
245.46794	56.653187
244.95546	56.519531
244.44295	56.450897
243.93042	56.322098
243.41786	56.301449
242.90527	56.164665
242.39055	56.248005
241.8779	56.349796
241.36522	56.453205
240.85252	56.940403
240.33978	57.245457
239.82703	57.506145
239.31424	57.778965
238.80142	58.057884
238.28857	58.169331
237.7757	58.362053
237.2628	58.341408
236.74776	58.070381
236.2348	57.783798
235.72182	57.568699
235.2088	57.262447
234.69576	57.011219
234.18268	56.78669
233.66957	56.60434
233.15434	56.415512
232.64119	56.469547
232.12801	56.749344
231.61479	57.095055
231.10155	57.42725
230.58827	57.71133
230.07286	58.010056
229.55954	58.320229
229.04619	58.504864
228.53279	58.514606
228.01938	58.29541
227.50383	58.050377
226.99037	57.76247
226.47687	57.437954
225.96333	57.08849
225.44978	56.757751
224.9341	56.413528
224.42049	56.089226
223.90685	55.73901
223.39317	55.432808
222.87737	55.096188
222.36363	54.813229
221.84988	54.647038
221.334	54.467476
220.82018	54.319836
220.30634	54.113674
219.79248	54.020576
219.27647	53.945381
218.76254	53.876297
218.2486	53.824131
217.7325	53.785961
217.21849	53.763119
216.70445	53.737106
216.18828	53.722641
215.67418	53.717213
215.16005	53.691616
214.6438	53.689404
214.12961	53.710228
213.6154	53.724354
213.09904	53.506935
212.58478	53.273865
212.07048	52.76939
211.55406	52.300541
211.0397	51.955692
210.52321	51.587124
210.0088	51.281521
209.49437	50.948288
208.97778	50.71645
208.46329	50.501942
207.94666	50.344921
207.4321	50.307987
206.91753	50.816265
206.4008	51.128304
205.88617	51.676956
205.36938	52.303253
204.85469	52.961731
204.33786	53.607075
203.8231	54.220322
203.30621	54.837753
202.79141	55.343472
202.27657	55.838009
201.7596	55.567646
201.24469	55.436188
200.72766	55.143074
200.21271	54.69062
199.69562	54.175148
199.1806	53.629326
198.66345	53.097576
198.14839	52.580074
197.63118	52.789242
197.11395	52.895039
196.5988	53.509407
196.0815	53.218327
195.5663	52.76535
195.04893	52.313457
194.53368	51.91655
194.01627	51.459805
193.50095	51.075466
192.98347	50.742676
192.46809	50.50869
191.95058	50.412178
191.43301	50.569954
190.91756	50.966759
190.39995	51.587112
189.88441	52.031658
189.36676	52.216175
188.84906	52.177956
188.33345	52.150974
187.81569	52.149643
187.30003	52.56641
186.78221	52.987373
186.26437	53.395103
185.74863	53.550095
185.23073	53.460735
184.7128	53.088409
184.19696	52.846893
183.67897	52.61298
183.16096	52.389057
182.64503	52.166977
182.12697	51.961235
181.60887	51.756447
181.09286	51.571594
180.57471	51.367077
180.05652	51.178288
179.54042	51.031639
179.02219	50.902538
178.50391	50.797436
177.98561	50.743778
177.46939	50.684177
176.95103	50.666534
176.43265	50.646938
175.91423	50.623798
175.3979	50.617271
174.87944	50.620964
174.36093	50.686504
173.84241	50.740379
173.32596	50.818104
172.80737	50.924679
172.28876	51.05249
171.77011	51.214256
171.25356	51.373699
170.73485	51.623379
170.21611	51.851395
169.69736	52.106571
169.17856	52.34861
168.66187	52.580902
168.14301	52.806007
167.62413	52.98806
167.10522	53.167595
166.58629	53.299389
166.06734	53.401485
165.55046	53.363827
165.03143	52.87215
164.51239	52.405102
163.9933	51.815392
163.4742	51.218781
162.95506	50.643288
162.4359	50.036095
161.9167	49.47715
161.3996	48.995564
160.88034	48.530537
160.36105	48.45187
159.84175	48.458332
159.3224	48.560318
158.80304	48.678551
158.28365	48.833321
157.76422	49.013287
157.24477	49.224121
156.72528	49.44191
156.20576	49.684483
155.68622	49.942123
155.16878	50.222515
154.64917	50.444092
154.12955	50.761719
153.60988	50.943447
153.09019	51.052692
152.57048	50.911427
152.05074	50.794472
151.53096	50.629494
151.01115	50.451149
150.49133	50.31863
149.97147	50.131851
149.45158	49.997139
148.93166	49.874496
148.41171	49.780853
147.89174	49.705444
147.37173	49.799023
146.8517	50.296917
146.33163	50.833748
145.81154	51.366554
145.28929	51.979458
144.76913	52.62273
144.24896	53.259064
143.72874	53.855995
143.20851	54.391144
142.68825	54.915337
142.16795	54.856251
141.64763	54.9314
141.12727	54.836269
140.60689	54.736885
140.08647	54.360985
139.56604	53.708477
139.04556	52.68911
138.52293	50.582573
138.00241	48.32629
