1.7707967	2694.241
1.7709268	2699.5942
1.7710571	2704.9993
1.7711873	2714.5374
1.7713177	2724.4702
1.771448	2733.5137
1.7715782	2742.7402
1.7717086	2752.311
1.771839	2762.282
1.7719694	2773.2769
1.7720997	2784.157
1.7722303	2794.729
1.7723608	2804.4004
1.7724912	2811.5315
1.7726216	2817.8811
1.7727522	2822.9421
1.7728827	2827.3694
1.7730134	2831.2173
1.7731439	2835.575
1.7732744	2840.1399
1.7734051	2844.8977
1.7735357	2849.9001
1.7736664	2854.2886
1.773797	2858.2798
1.7739278	2861.9448
1.7740586	2865.0105
1.7741894	2867.6685
1.7743199	2870.1921
1.7744507	2872.6494
1.7745816	2875.2363
1.7747123	2878.1321
1.7748432	2881.6555
1.7749741	2885.5225
1.775105	2890.1025
1.7752359	2895.6221
1.7753668	2901.8379
1.7754978	2908.5618
1.7756288	2917.3342
1.7757597	2927.8293
1.7758907	2938.9255
1.7760218	2950.573
1.7761528	2960.1677
1.7762839	2968.4146
1.776415	2971.4421
1.7765462	2972.3298
1.7766774	2973.04
1.7768085	2970.4795
1.7769396	2965.1187
1.7770709	2987.5955
1.777202	2998.1311
1.7773333	3005.7148
1.7774645	3010.0698
1.777596	3009.8716
1.7777272	2995.0364
1.7778585	2997.9487
1.7779899	2999.5842
1.7781212	3013.6062
1.7782527	3020.1873
1.7783841	3027.2861
1.7785155	3036.6016
1.7786468	3046.499
1.7787783	3055.677
1.7789099	3065.6797
1.7790414	3067.1541
1.7791729	3066.5242
1.7793045	3069.6685
1.7794361	3078.4634
1.7795676	3099.8188
1.7796992	3103.2666
1.7798309	3106.7825
1.7799625	3110.8694
1.7800944	3114.6553
1.780226	3118.5647
1.7803577	3122.1384
1.7804896	3124.8892
1.7806213	3127.2776
1.780753	3128.7632
1.7808849	3128.6387
1.7810166	3128.7742
1.7811486	3129.4341
1.7812804	3132.1062
1.7814124	3134.9578
1.7815442	3138.4216
1.7816761	3141.6575
1.7818081	3147.5957
1.78194	3154.3496
1.7820721	3161.8037
1.782204	3169.0728
1.7823361	3175.5789
1.7824683	3181.8765
1.7826003	3187.8604
1.7827325	3193.4277
1.7828645	3198.8501
1.7829968	3203.6958
1.7831289	3207.1458
1.7832611	3210.0938
1.7833931	3212.7361
1.7835255	3216.022
1.7836578	3221.0371
1.78379	3226.8887
1.7839223	3232.4033
1.7840546	3237.678
1.784187	3243.9736
1.7843193	3250.8108
1.7844517	3258.1423
1.784584	3266.1458
1.7847165	3274.0586
1.784849	3281.3464
1.7849814	3287.4753
1.7851139	3293.4824
1.7852465	3298.7144
1.7853791	3303.9121
1.7855115	3308.9058
1.7856441	3314.3718
1.7857767	3321.9998
1.7859093	3331.0198
1.7860419	3339.9053
1.7861745	3348.3628
1.7863072	3356.3169
1.78644	3362.7009
1.7865727	3369.1885
1.7867055	3376.0168
1.7868382	3383.8884
1.786971	3390.2935
1.7871038	3394.3606
1.7872366	3397.1953
1.7873695	3399.9099
1.7875023	3402.6741
1.7876352	3406.4802
1.7877681	3411.6743
1.7879012	3419.3254
1.7880341	3432.4309
1.7881671	3448.4358
1.7882999	3455.425
1.788433	3462.7693
1.788566	3469.998
1.788699	3477.4443
1.7888321	3484.7095
1.7889652	3492.1631
1.7890984	3499.7983
1.7892315	3507.6189
1.7893648	3515.9246
1.789498	3524.2937
1.7896312	3532.6855
1.7897644	3542.1294
1.7898977	3551.8076
1.790031	3561.498
1.7901642	3571.5588
1.7902975	3580.9795
1.7904308	3588.7805
1.7905642	3596.2708
1.7906976	3603.1995
1.7908311	3610.1548
1.7909645	3616.8726
1.7910979	3624.832
1.7912313	3632.5498
1.7913648	3638.0203
1.7914983	3641.9751
1.7916319	3648.405
1.7917655	3655.8286
1.791899	3664.2854
1.7920325	3673.0356
1.7921662	3682.3359
1.7922999	3691.9072
1.7924335	3701.5774
1.7925671	3711.0891
1.792701	3722.0952
1.7928346	3733.5029
1.7929683	3745.4648
1.793102	3758.0056
1.7932359	3770.4685
1.7933697	3782.4109
1.7935035	3794.604
1.7936374	3806.5659
1.7937713	3818.6589
1.7939053	3830.8628
1.7940391	3843.0046
1.794173	3855.0447
1.794307	3866.9199
1.794441	3878.4292
1.7945751	3888.8875
1.794709	3899.3867
1.794843	3909.5583
1.7949772	3919.4778
1.7951112	3929.2549
1.7952454	3938.9443
1.7953794	3948.7488
1.7955136	3959.052
1.7956477	3969.5334
1.7957821	3979.8247
1.7959162	3991.6069
1.7960505	4003.9104
1.7961847	4016.7112
1.796319	4029.2778
1.7964532	4040.7993
1.7965877	4052.4512
1.7967219	4063.9236
1.7968564	4074.875
1.7969909	4085.5146
1.7971251	4096.4253
1.7972597	4107.3423
1.797394	4118.3384
1.7975285	4129.7466
1.7976631	4140.8833
1.7977976	4152.126
1.7979321	4162.9551
1.7980667	4173.4927
1.7982012	4183.3047
1.7983359	4191.5796
1.7984705	4197.9253
1.7986051	4204.4897
1.7987398	4210.4048
1.7988745	4217.0571
1.7990093	4222.6636
1.7991439	4228.1841
1.7992787	4234.3032
1.7994136	4243.1553
1.7995484	4253.2827
1.7996831	4264.7822
1.799818	4280.0181
1.7999529	4296.4019
1.8000878	4311.9268
1.8002228	4326.9492
1.8003576	4341.4097
1.8004925	4355.0938
1.8006276	4367.9858
1.8007625	4380.9839
1.8008976	4393.564
1.8010327	4414.0054
1.8011677	4426.2065
1.8013027	4434.7397
1.8014379	4440.4985
1.8015729	4444.2061
1.8017081	4444.0674
1.8018433	4442.5093
1.8019785	4441.8413
1.8021138	4442.0508
1.802249	4441.9756
1.8023843	4441.856
1.8025196	4445.2939
1.8026549	4450.145
1.8027902	4455.9849
1.8029256	4463.1382
1.8030609	4471.9585
1.8031963	4482.002
1.8033317	4493.1978
1.8034672	4504.6865
1.8036026	4516.2915
1.803738	4527.001
1.8038735	4539.958
1.8040091	4547.5889
1.8041446	4556.2354
1.8042802	4564.3501
1.8044158	4573.002
1.8045515	4582.8828
1.804687	4596.8799
1.8048227	4615.5835
1.8049583	4642.2017
1.805094	4622.0767
1.8052297	4624.7285
1.8053656	4628.6807
1.8055013	4632.7251
1.8056371	4636.7739
1.8057729	4641.2651
1.8059087	4645.4116
1.8060446	4649.6763
1.8061805	4654.2417
1.8063164	4659.2158
1.8064522	4664.8477
1.8065883	4671.6484
1.8067242	4679.2559
1.8068601	4687.6289
1.8069961	4696.9663
1.8071322	4707.2759
1.8072683	4719.252
1.8074043	4731.6372
1.8075404	4744.3042
1.8076766	4753.1636
1.8078126	4761.5942
1.8079488	4770.5293
1.808085	4780.1626
1.8082211	4791.376
1.8083575	4803.8027
1.8084936	4815.7368
1.80863	4826.8203
1.8087662	4833.77
1.8089025	4839.3975
1.8090389	4843.085
1.8091753	4846.3018
1.8093116	4850.6372
1.809448	4855.7622
1.8095845	4861.3638
1.8097209	4869.6431
1.8098574	4878.6133
1.8099939	4887.6821
1.8101305	4895.1382
1.8102669	4901.9414
1.8104035	4909.0298
1.81054	4916.4692
1.8106767	4925.751
1.8108132	4937.4761
1.8109499	4948.6377
1.8110865	4959.0474
1.8112233	4970.4971
1.8113599	4982.2598
1.8114967	4995.2744
1.8116335	5009.2588
1.8117702	5024.4951
1.8119071	5041.3608
1.8120439	5060.3247
1.8121806	5080.9414
1.8123176	5103.8701
1.8124543	5123.1602
1.8125913	5139.2695
1.8127283	5153.0391
1.8128654	5164.9829
1.8130022	5176.27
1.8131392	5185.3789
1.8132763	5195.1177
1.8134133	5206.957
1.8135504	5229.0459
1.8136874	5251.5679
1.8138247	5272.3545
1.8139616	5292.4438
1.8140988	5310.7896
1.814236	5318.5254
1.8143733	5327.5723
1.8145106	5337.9175
1.8146477	5350.313
1.814785	5363.5752
1.8149222	5376.9473
1.8150597	5388.1655
1.815197	5390.356
1.8153342	5404.3813
1.8154715	5420.186
1.815609	5436.3247
1.8157464	5454.2651
1.8158839	5473.9067
1.8160214	5495.8716
1.8161589	5520.8877
1.8162965	5550.7339
1.816434	5578.3457
1.8165715	5604.4478
1.8167092	5627.9639
1.8168466	5649.6387
1.8169842	5669.855
1.8171219	5689.5181
1.8172596	5708.4473
1.8173972	5729.1699
1.8175349	5742.7529
1.8176726	5762.7373
1.8178104	5785.0059
1.8179482	5809.7637
1.818086	5836.2485
1.818224	5861.7476
1.8183618	5885.9561
1.8184997	5907.0708
1.8186375	5927.7402
1.8187754	5946.6523
1.8189133	5963.5024
1.8190513	5978.8076
1.8191893	5993.4971
1.8193272	6007.0723
1.8194653	6021.2021
1.8196033	6035.3022
1.8197415	6044.2905
1.8198795	6052.8188
1.8200177	6062.9463
1.8201557	6074.6714
1.8202939	6088.167
1.8204322	6103.2842
1.8205703	6120.1934
1.8207086	6139.1201
1.8208468	6159.8862
1.8209851	6182.2134
1.8211235	6206.0713
1.8212618	6230.7617
1.8214	6254.2349
1.8215383	6276.9536
1.8216769	6299.5625
1.8218153	6321.6035
1.8219537	6342.5488
1.8220922	6357.5967
1.8222306	6369.9878
1.822369	6379.9668
1.8225075	6387.9878
1.8226461	6393.3335
1.8227847	6395.8447
1.8229233	6395.9771
1.8230619	6394.6465
1.8232005	6394.9111
1.8233392	6399.9609
1.8234779	6408.0781
1.8236165	6417.5259
1.8237553	6428.5488
1.823894	6440.2412
1.8240329	6453.2197
1.8241715	6466.9653
1.8243104	6481.6128
1.8244493	6496.2983
1.8245881	6513.1289
1.8247269	6527.6704
1.8248658	6539.1133
1.8250048	6549.8369
1.8251437	6560.208
1.8252827	6570.4727
1.8254217	6579.7642
1.8255608	6588.4644
1.8256999	6596.7739
1.8258388	6604.5654
1.825978	6612.1245
1.826117	6618.5898
1.8262563	6633.1919
1.8263953	6647.1875
1.8265345	6659.5869
1.8266737	6671.1074
1.8268129	6681.6182
1.8269522	6690.8882
1.8270913	6699.6265
1.8272307	6708.2451
1.8273702	6721.2402
1.8275093	6728.4766
1.8276488	6733.8813
1.8277882	6738.5444
1.8279275	6742.8857
1.8280669	6747.3979
1.8282064	6751.2979
1.8283458	6755.6006
1.8284854	6760.2319
1.828625	6765.6572
1.8287646	6772.2271
1.8289039	6781.7031
1.8290436	6790.9282
1.8291832	6797.833
1.8293229	6804.3384
1.8294624	6812.4478
1.8296021	6821.5186
1.8297418	6821.9404
1.8298817	6843.2637
1.8300214	6864.2056
1.830161	6925.5923
1.8303008	7008.0547
1.8304406	7006.9531
1.8305806	6997.5938
1.8307204	6959.7192
1.8308604	6956.9844
1.8310002	6957.9316
1.83114	6963.8174
1.83128	6976.7729
1.8314199	6990.2217
1.83156	6992.7065
1.8317001	7003.187
1.8318402	7008.5068
1.8319802	7020.603
1.8321203	7027.6406
1.8322604	7044.2661
1.8324006	7068.6128
1.8325406	7090.1899
1.8326808	7113.6157
1.8328211	7136.4189
1.8329613	7158.5894
1.8331015	7178.9229
1.8332418	7195.8428
1.8333821	7212.6284
1.8335224	7229.7451
1.8336627	7248.9741
1.8338031	7268.8003
1.8339435	7288.1738
1.8340839	7307.1841
1.8342243	7324.5488
1.8343648	7339.6675
1.8345052	7351.2197
1.8346456	7366.5552
1.8347864	7382.5552
1.8349268	7399.415
1.8350674	7417.1416
1.8352081	7434.3335
1.8353486	7452.3354
1.8354892	7475.2876
1.8356298	7498.9541
1.8357706	7521.2085
1.8359114	7544.6045
1.8360521	7567.0435
1.8361927	7588.5552
1.8363335	7607.3203
1.8364744	7624.9873
1.8366152	7640.8086
1.836756	7653.1519
1.8368969	7664.8223
1.8370379	7677.7686
1.8371787	7689.0625
1.8373196	7701.7827
1.8374605	7717.4253
1.8376017	7733.0112
1.8377426	7747.2168
1.8378836	7761.4185
1.8380247	7775.4131
1.8381658	7792.4785
1.8383068	7810.647
1.838448	7828.8823
1.8385892	7845.9331
1.8387302	7864.749
1.8388716	7882.9111
1.8390127	7900.8789
1.8391539	7918.2007
1.8392953	7934.3735
1.8394364	7950.0557
1.8395779	7966.7622
1.8397192	7983.54
1.8398606	7999.6504
1.8400019	8013.8188
1.8401432	8026.1162
1.8402847	8036.5225
1.8404261	8045.4751
1.8405677	8053.9453
1.8407091	8065.1484
1.8408507	8069.1318
1.8409921	8074.2681
1.8411337	8080.5493
1.8412752	8087.7593
1.841417	8095.832
1.8415585	8112.0273
1.8417002	8119.2334
1.8418418	8126.708
1.8419836	8135.4883
1.8421254	8146.5049
1.842267	8160.0005
1.8424089	8174.8862
1.8425506	8191.1743
1.8426925	8208.8818
1.8428344	8226.3564
1.8429761	8242.8037
1.8431181	8256.5342
1.84326	8268.6279
1.8434019	8278.5879
1.8435439	8286.3906
1.8436857	8291.8691
1.8438278	8295.0869
1.8439699	8295.8311
1.844112	8294.1465
1.844254	8289.0029
1.8443961	8286.0645
1.8445383	8285.4453
1.8446803	8285.0723
1.8448225	8284.0518
1.8449647	8280.8467
1.8451071	8276.5508
1.8452492	8278.6445
1.8453915	8280.6016
1.8455337	8279.9834
1.8456762	8276.4102
1.8458185	8271.4063
1.8459607	8265.374
1.8461031	8261.1074
1.8462455	8258.6475
1.846388	8259.9336
1.8465304	8262.8457
1.8466728	8267.0313
1.8468153	8269.3232
1.8469579	8271.748
1.8471005	8279.0986
1.8472431	8287.9688
1.8473856	8296.6816
1.8475283	8304.0537
1.8476709	8312.1357
1.8478136	8321.6953
1.8479562	8330.126
1.8480989	8337.5117
1.8482416	8339.5752
1.8483844	8339.3818
1.8485272	8337.6582
1.84867	8335.3027
1.8488128	8333.8135
1.8489556	8330.7598
1.8490986	8327.1641
1.8492414	8323.5938
1.8493843	8320.0488
1.8495272	8316.6289
1.8496702	8313.4941
1.8498132	8310.459
1.8499563	8308.1455
1.8500992	8306.0723
1.8502423	8304.4258
1.8503854	8303.5361
1.8505286	8303.5938
1.8506718	8303.8789
1.8508149	8304.3877
1.8509581	8305.5957
1.8511013	8307.3057
1.8512444	8309.3809
1.8513876	8311.7754
1.8515309	8313.7168
1.8516743	8312.4395
1.8518176	8308.876
1.851961	8301.5137
1.8521043	8292.6318
1.8522477	8283.083
1.852391	8273.627
1.8525347	8266.4961
1.8526781	8260.2695
1.8528215	8254.7188
1.852965	8248.9023
1.8531085	8241.7549
1.8532522	8235.2578
1.8533957	8229.9053
1.8535392	8225.8389
1.8536829	8222.7852
1.8538266	8222.4766
1.8539703	8226.9072
1.8541139	8234.6201
1.8542577	8239.21
1.8544015	8241.0654
1.8545451	8240.0254
1.854689	8237.3301
1.8548328	8232.0781
1.8549767	8226.6689
1.8551205	8220.7461
1.8552644	8215.3018
1.8554082	8210.876
1.8555523	8206.2207
1.8556962	8201.8154
1.8558401	8194.4971
1.8559842	8186.8848
1.8561282	8179.1777
1.8562723	8171.8696
1.8564163	8165.8701
1.8565606	8161.7183
1.8567046	8158.2173
1.8568487	8154.4019
1.856993	8147.3501
1.8571371	8136.9395
1.8572813	8125.5962
1.8574256	8115.0347
1.8575699	8106.1372
1.8577141	8096.8833
1.8578585	8088.0049
1.8580028	8078.6431
1.8581471	8068.9375
1.8582915	8059.9263
1.858436	8051.2397
1.8585804	8042.4756
1.8587248	8035.3677
1.8588694	8035.5396
1.8590138	8035.0615
1.8591584	8030.6777
1.8593029	8025.1553
1.8594475	8019.5249
1.8595922	8012.5254
1.8597367	7994.7505
1.8598814	7970.7539
1.860026	7916.062
1.8601707	7884.5151
1.8603156	7856.104
1.8604602	7849.0498
1.860605	7831.208
1.8607498	7816.353
1.8608946	7804.2925
1.8610394	7793.7896
1.8611844	7784.2246
1.8613293	7776.2876
1.8614742	7768.7319
1.8616191	7759.0459
1.8617641	7750.7358
1.8619089	7735.7139
1.862054	7720.8643
1.8621991	7709.2432
1.8623441	7699.4692
1.8624893	7690.8389
1.8626343	7677.6733
1.8627795	7667.3003
1.8629246	7656.3906
1.8630699	7646.2373
1.8632151	7637.3154
1.8633602	7629.6709
1.8635055	7624.2539
1.8636508	7620.2173
1.8637961	7618.8018
1.8639414	7615.0713
1.8640867	7607.0898
1.8642321	7596.8882
1.8643774	7580.1475
1.8645228	7559.5005
1.8646684	7535.4146
1.8648138	7509.7539
1.8649594	7486.3838
1.8651048	7459.4487
1.8652503	7436.4873
1.865396	7418.1406
1.8655416	7394.5005
1.8656873	7380.0459
1.8658328	7368.0137
1.8659785	7357.9424
1.8661242	7352.0024
1.8662699	7345.5327
1.8664156	7338.998
1.8665614	7330.5254
1.8667072	7319.5444
1.866853	7306.2725
1.8669988	7289.5884
1.8671446	7268.813
1.8672905	7244.6665
1.8674364	7218.6704
1.8675823	7194.6304
1.8677282	7174.1279
1.8678743	7160.7456
1.8680202	7145.1641
1.8681662	7134.2148
1.8683122	7133.8296
1.8684583	7125.4746
1.8686045	7116.7959
1.8687507	7108.4204
1.8688967	7099.8711
1.8690429	7090.9575
1.869189	7081.9409
1.8693353	7073.1245
1.8694814	7064.1636
1.8696278	7055.3857
1.8697741	7047.0415
1.8699204	7037.4883
1.8700668	7026.731
1.870213	7012.1343
1.8703595	6998.896
1.8705059	6985.8691
1.8706523	6970.6533
1.8707988	6949.9067
1.8709453	6922.7627
1.8710918	6902.3184
1.8712384	6882.7402
1.8713849	6864.0635
1.8715316	6846.7134
1.8716781	6830.1309
1.8718247	6814.8613
1.8719715	6800.8188
1.8721181	6788.5918
1.8722647	6778.002
1.8724116	6768.6812
1.8725582	6757.9639
1.872705	6745.4121
1.872852	6730.7676
1.8729987	6715.5352
1.8731455	6698.2188
1.8732924	6679.0977
1.8734393	6653.291
1.8735863	6625.3696
1.8737332	6596.7275
1.87388	6570.2114
1.8740271	6543.6621
1.8741741	6517.8999
1.8743212	6493.2437
1.8744682	6469.7529
1.8746154	6447.9224
1.8747625	6428.915
1.8749098	6410.9512
1.8750569	6393.5752
1.8752041	6373.73
1.8753512	6353.9263
1.8754985	6336.1558
1.8756458	6320.5659
1.8757931	6305.1997
1.8759403	6290.021
1.8760878	6272.2739
1.876235	6254.8672
1.8763825	6230.4072
1.8765298	6202.4175
1.8766773	6173.4521
1.8768247	6145.896
1.8769722	6118.3862
1.8771199	6091.5127
1.8772672	6067.1558
1.8774149	6047.0498
1.8775624	6025.168
1.8777101	6002.7139
1.8778578	5977.9312
1.8780053	5951.8047
1.8781531	5925.9619
1.8783008	5902.5371
1.8784485	5881.3784
1.8785963	5860.6216
1.8787441	5838.7881
1.8788918	5818.0991
1.8790396	5797.772
1.8791876	5776.8262
1.8793353	5751.1113
1.8794833	5725.3516
1.8796313	5701.4106
1.8797792	5677.8262
1.8799272	5654.3584
1.8800752	5629.9976
1.8802233	5603.687
1.8803713	5575.0259
1.8805193	5544.4189
1.8806674	5513.019
1.8808156	5481.8965
1.8809638	5451.1006
1.881112	5422.2197
1.88126	5393.584
1.8814083	5364.4336
1.8815566	5333.2681
1.8817049	5299.9653
1.8818532	5266.7642
1.8820016	5233.9517
1.8821499	5203.9683
1.8822982	5175.3418
1.8824466	5148.1606
1.8825951	5123.2173
1.8827435	5100.5391
1.882892	5084.001
1.8830405	5066.5342
1.8831891	5049.5073
1.8833376	5033.2354
1.8834863	5018.813
1.8836348	5004.4927
1.8837835	4989.4082
1.8839321	4971.4312
1.8840806	4951.6118
1.8842293	4929.2563
1.8843781	4903.355
1.8845268	4873.2334
1.8846756	4842.1411
1.8848244	4811.4551
1.8849732	4781.7583
1.8851221	4753.6055
1.8852711	4727.1831
1.88542	4702.7373
1.8855689	4680.7236
1.8857179	4663.2671
1.8858668	4646.8086
1.8860158	4629.5806
1.8861648	4612.6597
1.8863138	4595.2354
1.8864629	4577.5903
1.8866119	4559.6182
1.8867611	4541.0825
1.8869102	4521.7896
1.8870593	4501.1128
1.8872087	4479.9556
1.8873578	4458.707
1.8875071	4437.3691
1.8876563	4417.1519
1.8878056	4397.1353
1.887955	4377.0518
1.8881044	4357.1865
1.8882537	4338.0327
1.8884031	4319.231
1.8885524	4300.7949
1.8887019	4282.3286
1.8888515	4263.9775
1.889001	4245.4951
1.8891505	4226.4536
1.8893	4207.9707
1.8894496	4190.103
1.8895992	4172.1138
1.8897488	4154.436
1.8898984	4136.6919
1.8900481	4118.2808
1.8901979	4098.1782
1.8903475	4076.9492
1.8904973	4056.5151
1.8906471	4039.8262
1.8907968	4027.5117
1.8909466	4017.8652
1.8910966	4011.2161
1.8912463	4004.7083
1.8913964	3994.4187
1.8915462	3982.835
1.8916961	3969.6711
1.8918462	3954.822
1.8919961	3938.4534
1.8921461	3920.2549
1.8922963	3894.1272
1.8924463	3876.0344
1.8925965	3857.5078
1.8927466	3838.1953
1.8928965	3817.6348
1.8930469	3797.906
1.8931969	3779.4675
1.8933473	3765.1794
1.8934975	3752.5247
1.8936478	3742.5056
1.8937981	3733.5378
1.8939484	3721.9246
1.8940988	3711.4541
1.8942492	3698.5427
1.8943995	3683.3999
1.8945501	3667.3821
1.8947004	3649.4949
1.894851	3631.7583
1.8950014	3615.4988
1.895152	3601.2295
1.8953024	3586.5068
1.8954531	3571.9878
1.8956037	3555.5918
1.8957543	3536.5667
1.895905	3517.167
1.8960556	3501.3599
1.8962064	3487.4714
1.8963571	3474.1431
1.8965079	3461.3159
1.8966587	3448.4229
1.8968093	3435.1929
1.8969603	3422.498
1.8971112	3410.3196
1.897262	3397.9321
1.8974129	3385.1528
1.8975639	3371.9575
1.8977147	3357.8108
1.8978658	3344.6138
1.8980169	3332.4399
1.8981677	3319.6497
1.8983189	3305.126
1.89847	3289.0017
1.898621	3272.4448
1.8987722	3256.8589
1.8989234	3243.4209
1.8990747	3230.491
1.8992257	3218.2732
1.899377	3206.3362
1.8995283	3194.3655
1.8996797	3183.155
1.8998308	3171.8577
1.8999822	3160.0706
1.9001336	3147.1714
1.900285	3132.864
1.9004365	3116.2678
1.9005879	3099.1152
1.9007393	3080.4021
1.9008908	3062.084
1.9010423	3046.2188
1.9011939	3030.6477
1.9013455	3015.5757
1.9014971	3001.1138
1.9016486	2987.5898
1.9018003	2974.6104
1.9019519	2963.1289
1.9021037	2952.3652
1.9022554	2942.1409
1.9024072	2932.3503
1.9025589	2922.8765
1.9027108	2913.1045
1.9028625	2903.2874
1.9030144	2893.2668
1.9031664	2882.9893
1.9033183	2873.625
1.9034702	2864.1985
1.903622	2854.7793
1.9037739	2845.0291
1.903926	2835.0811
1.904078	2824.6064
1.90423	2812.6372
1.9043821	2800.8264
1.9045342	2788.5649
1.9046866	2775.8708
1.9048387	2762.8562
1.9049909	2749.5989
1.905143	2736.2585
1.9052953	2723.0864
1.9054476	2710.0276
1.9055998	2697.2446
1.9057522	2684.053
1.9059044	2666.7673
1.9060568	2654.156
1.9062091	2642.521
1.9063616	2631.1963
1.9065139	2619.968
1.9066664	2608.8259
1.9068191	2598.1348
1.9069716	2586.9832
1.907124	2577.1592
1.9072766	2567.4109
1.9074292	2557.6675
1.9075818	2547.9475
1.9077346	2538.1465
1.9078872	2527.5322
1.9080399	2516.9458
1.9081926	2506.1511
1.9083453	2495.2148
1.9084982	2484.0977
1.908651	2472.8042
1.9088037	2461.25
1.9089565	2449.5259
1.9091094	2437.7112
1.9092624	2425.1194
1.9094154	2412.427
1.9095682	2399.4495
1.9097211	2386.77
1.9098743	2374.5115
1.9100273	2362.6694
1.9101803	2351.0137
1.9103335	2339.489
1.9104866	2328.0278
1.9106396	2317.0557
1.9107929	2306.272
1.910946	2295.5559
1.9110992	2284.623
1.9112526	2270.8518
1.9114058	2258.1682
1.911559	2246.8542
1.9117124	2236.2207
1.9118657	2226.0627
1.912019	2216.6091
1.9121726	2208.6604
1.9123259	2202.3179
1.9124794	2196.4492
1.9126328	2190.6296
1.9127862	2184.6877
1.9129399	2177.481
1.9130933	2170.0205
1.913247	2162.219
1.9134005	2153.751
1.9135543	2144.9587
1.9137079	2135.6025
1.9138616	2125.5278
1.9140153	2114.8208
1.9141691	2101.0918
1.9143227	2088.4141
1.9144766	2077.271
1.9146304	2067.1943
1.9147843	2057.5916
1.9149381	2048.6458
1.915092	2039.6548
1.9152459	2032.0841
1.9153999	2025.7745
1.9155537	2019.5867
1.9157078	2013.016
